 -5.4000000e+001 -2.3200000e+002 -5.1800000e+002 -8.0300000e+002 -9.6400000e+002 -9.9900000e+002 -9.4600000e+002 -9.2800000e+002 -9.8200000e+002 -1.0890000e+003 -1.2140000e+003 -1.3030000e+003 -1.3210000e+003 -1.2670000e+003 -1.1600000e+003 -1.1240000e+003 -1.1780000e+003 -1.3390000e+003 -1.5710000e+003 -1.7850000e+003 -1.9280000e+003 -1.9280000e+003 -1.8030000e+003 -1.6600000e+003 -1.5880000e+003 -1.5710000e+003 -1.6420000e+003 -1.7130000e+003 -1.7130000e+003 -1.6060000e+003 -1.4460000e+003 -1.2850000e+003 -1.1960000e+003 -1.1960000e+003 -1.2850000e+003 -1.4280000e+003 -1.5350000e+003 -1.5170000e+003 -1.3740000e+003 -1.1960000e+003 -1.0530000e+003 -9.9900000e+002 -1.0350000e+003 -1.1240000e+003 -1.1780000e+003 -1.1420000e+003 -9.8200000e+002 -7.5000000e+002 -5.3500000e+002 -3.3900000e+002 -1.4300000e+002  1.7800000e+002  7.5000000e+002  1.6420000e+003  2.8560000e+003  4.2660000e+003  5.5150000e+003  6.1930000e+003  6.0500000e+003  5.1400000e+003  3.7300000e+003  2.1240000e+003  5.3500000e+002 -8.7500000e+002 -2.0350000e+003 -2.9090000e+003 -3.5160000e+003 -3.8370000e+003 -3.8910000e+003 -3.6940000e+003 -3.2480000e+003 -2.6240000e+003 -1.9450000e+003 -1.3030000e+003 -8.3900000e+002 -5.8900000e+002 -5.1800000e+002 -5.3500000e+002 -5.7100000e+002 -5.5300000e+002 -4.6400000e+002 -3.2100000e+002 -1.9600000e+002 -1.7800000e+002 -3.0300000e+002 -5.0000000e+002 -6.7800000e+002 -7.3200000e+002 -6.0700000e+002 -4.1000000e+002 -2.1400000e+002 -1.0700000e+002 -1.0700000e+002 -1.6100000e+002 -2.8600000e+002 -3.7500000e+002 -3.9300000e+002 -3.3900000e+002 -3.0300000e+002 -3.2100000e+002 -3.7500000e+002 -4.4600000e+002 -5.0000000e+002 -5.1800000e+002 -4.4600000e+002 -2.8600000e+002 -8.9000000e+001  8.9000000e+001  1.4300000e+002  8.9000000e+001 -1.8000000e+001 -1.0700000e+002 -1.2500000e+002  0.0000000e+000  1.6100000e+002  3.0300000e+002  3.2100000e+002  2.1400000e+002  5.4000000e+001 -1.0700000e+002 -2.1400000e+002 -1.7800000e+002 -3.6000000e+001  1.4300000e+002  2.6800000e+002  2.8600000e+002  2.3200000e+002  1.6100000e+002  1.0700000e+002  1.4300000e+002  2.3200000e+002  3.9300000e+002  5.3500000e+002  6.2500000e+002  6.2500000e+002  5.7100000e+002  5.1800000e+002  5.3500000e+002  6.6000000e+002  8.3900000e+002  1.0170000e+003  1.0890000e+003  1.0710000e+003  9.6400000e+002  8.5700000e+002  8.0300000e+002  8.5700000e+002  9.6400000e+002  1.0710000e+003  1.0890000e+003  1.0350000e+003  9.2800000e+002  8.9200000e+002  9.8200000e+002  1.1780000e+003  1.4990000e+003  1.8200000e+003  2.0700000e+003  2.2130000e+003  2.1950000e+003  2.0880000e+003  1.9630000e+003  1.8920000e+003  1.9450000e+003  2.1240000e+003  2.2840000e+003  2.3740000e+003  2.3200000e+003  2.1600000e+003  1.9810000e+003  1.9100000e+003  1.9990000e+003  2.1950000e+003  2.4270000e+003  2.6060000e+003  2.6240000e+003  2.5160000e+003  2.3380000e+003  2.1770000e+003  2.0880000e+003  2.0880000e+003  2.1600000e+003  2.1770000e+003  2.0700000e+003  1.8380000e+003  1.5170000e+003  1.1780000e+003  8.9200000e+002  7.3200000e+002  6.6000000e+002  6.2500000e+002  5.0000000e+002  2.5000000e+002 -8.9000000e+001 -4.2800000e+002 -6.9600000e+002 -8.3900000e+002 -8.5700000e+002 -8.0300000e+002 -7.8500000e+002 -8.7500000e+002 -1.0170000e+003 -1.1960000e+003 -1.3030000e+003 -1.3030000e+003 -1.1960000e+003 -1.0530000e+003 -9.4600000e+002 -9.4600000e+002 -1.0710000e+003 -1.2670000e+003 -1.4630000e+003 -1.5530000e+003 -1.5530000e+003 -1.4460000e+003 -1.3210000e+003 -1.2850000e+003 -1.3560000e+003 -1.4810000e+003 -1.6420000e+003 -1.7490000e+003 -1.7670000e+003 -1.6780000e+003 -1.5350000e+003 -1.4630000e+003 -1.5170000e+003 -1.6600000e+003 -1.8030000e+003 -1.8740000e+003 -1.8030000e+003 -1.6060000e+003 -1.3560000e+003 -1.2140000e+003 -1.1960000e+003 -1.3210000e+003 -1.5170000e+003 -1.6960000e+003 -1.7670000e+003 -1.6780000e+003 -1.4810000e+003 -1.2310000e+003 -1.0530000e+003 -9.9900000e+002 -1.0890000e+003 -1.2140000e+003 -1.2850000e+003 -1.2490000e+003 -1.1240000e+003 -9.8200000e+002 -8.7500000e+002 -8.7500000e+002 -9.6400000e+002 -1.0710000e+003 -1.1780000e+003 -1.1960000e+003 -1.1240000e+003 -9.8200000e+002 -8.7500000e+002 -8.7500000e+002 -9.6400000e+002 -1.1240000e+003 -1.2670000e+003 -1.3740000e+003 -1.3920000e+003 -1.3210000e+003 -1.2140000e+003 -1.1420000e+003 -1.1420000e+003 -1.2310000e+003 -1.3210000e+003 -1.3210000e+003 -1.2140000e+003 -1.0170000e+003 -8.2100000e+002 -7.1400000e+002 -7.6700000e+002 -9.4600000e+002 -1.1600000e+003 -1.3030000e+003 -1.3390000e+003 -1.2140000e+003 -9.8200000e+002 -7.3200000e+002 -5.7100000e+002 -5.1800000e+002 -5.5300000e+002 -6.2500000e+002 -6.2500000e+002 -5.5300000e+002 -4.1000000e+002 -3.2100000e+002 -3.5700000e+002 -5.0000000e+002 -7.5000000e+002 -9.8200000e+002 -1.1070000e+003 -1.0710000e+003 -9.2800000e+002 -7.3200000e+002 -5.7100000e+002 -5.1800000e+002 -5.8900000e+002 -7.6700000e+002 -9.6400000e+002 -1.0530000e+003 -1.0350000e+003 -9.1000000e+002 -8.0300000e+002 -7.8500000e+002 -8.5700000e+002 -9.9900000e+002 -1.0890000e+003 -1.0710000e+003 -9.1000000e+002 -6.7800000e+002 -4.8200000e+002 -3.9300000e+002 -4.1000000e+002 -5.3500000e+002 -6.7800000e+002 -7.6700000e+002 -7.5000000e+002 -6.2500000e+002 -4.6400000e+002 -3.7500000e+002 -4.1000000e+002 -5.8900000e+002 -8.3900000e+002 -1.0710000e+003 -1.1960000e+003 -1.1780000e+003 -1.1070000e+003 -1.0170000e+003 -9.6400000e+002 -9.4600000e+002 -9.2800000e+002 -8.7500000e+002 -7.1400000e+002 -4.4600000e+002 -1.2500000e+002  8.9000000e+001  1.4300000e+002  3.6000000e+001 -1.7800000e+002 -3.9300000e+002 -5.1800000e+002 -5.0000000e+002 -3.3900000e+002 -1.2500000e+002  5.4000000e+001  1.0700000e+002  8.9000000e+001  1.8000000e+001  0.0000000e+000  5.4000000e+001  1.4300000e+002  2.8600000e+002  4.2800000e+002  4.8200000e+002  4.2800000e+002  3.0300000e+002  2.1400000e+002  1.9600000e+002  2.6800000e+002  3.9300000e+002  4.6400000e+002  4.2800000e+002  2.6800000e+002  3.6000000e+001 -1.6100000e+002 -2.6800000e+002 -2.3200000e+002 -8.9000000e+001  7.1000000e+001  1.6100000e+002  1.0700000e+002 -7.1000000e+001 -3.0300000e+002 -4.6400000e+002 -5.5300000e+002 -5.3500000e+002 -4.6400000e+002 -3.9300000e+002 -4.2800000e+002 -5.7100000e+002 -8.0300000e+002 -1.0170000e+003 -1.1070000e+003 -1.0350000e+003 -8.9200000e+002 -7.5000000e+002 -6.7800000e+002 -7.3200000e+002 -8.9200000e+002 -1.0530000e+003 -1.1420000e+003 -1.1420000e+003 -1.1070000e+003 -1.0890000e+003 -1.0890000e+003 -1.1420000e+003 -1.2490000e+003 -1.3740000e+003 -1.4630000e+003 -1.4280000e+003 -1.2850000e+003 -1.1070000e+003 -9.8200000e+002 -9.4600000e+002 -1.0170000e+003 -1.1960000e+003 -1.3920000e+003 -1.5350000e+003 -1.5880000e+003 -1.5170000e+003 -1.4100000e+003 -1.2670000e+003 -1.1420000e+003 -9.9900000e+002 -8.2100000e+002 -5.7100000e+002 -2.1400000e+002  1.9600000e+002  6.2500000e+002  1.0530000e+003  1.5170000e+003  2.0880000e+003  2.8560000e+003  3.9090000e+003  5.1220000e+003  6.2470000e+003  6.8710000e+003  6.7460000e+003  5.8360000e+003  4.3550000e+003  2.5880000e+003  8.2100000e+002 -7.6700000e+002 -1.9990000e+003 -2.8020000e+003 -3.1950000e+003 -3.2840000e+003 -3.1950000e+003 -2.9810000e+003 -2.6590000e+003 -2.2310000e+003 -1.7130000e+003 -1.1600000e+003 -6.4300000e+002 -2.5000000e+002 -5.4000000e+001 -3.6000000e+001 -1.0700000e+002 -1.2500000e+002 -3.6000000e+001  1.0700000e+002  2.6800000e+002  3.7500000e+002  4.2800000e+002  4.1000000e+002  3.2100000e+002  2.6800000e+002  2.8600000e+002  4.1000000e+002  5.7100000e+002  7.1400000e+002  7.6700000e+002  6.6000000e+002  4.6400000e+002  2.1400000e+002  3.6000000e+001  5.4000000e+001  2.1400000e+002  4.1000000e+002  5.1800000e+002  5.1800000e+002  4.1000000e+002  2.3200000e+002  8.9000000e+001  8.9000000e+001  2.1400000e+002  3.9300000e+002  5.1800000e+002  5.5300000e+002  5.0000000e+002  4.4600000e+002  4.6400000e+002  5.7100000e+002  7.8500000e+002  1.0350000e+003  1.2310000e+003  1.3030000e+003  1.1960000e+003  9.4600000e+002  6.6000000e+002  4.6400000e+002  4.1000000e+002  5.1800000e+002  7.1400000e+002  8.9200000e+002  9.8200000e+002  9.8200000e+002  9.4600000e+002  9.8200000e+002  1.1070000e+003  1.3210000e+003  1.6060000e+003  1.8560000e+003  1.9990000e+003  2.0350000e+003  1.9630000e+003  1.8560000e+003  1.7670000e+003  1.7490000e+003  1.7670000e+003  1.8200000e+003  1.8560000e+003  1.8380000e+003  1.7850000e+003  1.7490000e+003  1.7670000e+003  1.8560000e+003  2.0170000e+003  2.2310000e+003  2.4090000e+003  2.5160000e+003  2.4990000e+003  2.4270000e+003  2.3740000e+003  2.4090000e+003  2.5880000e+003  2.8200000e+003  3.0340000e+003  3.1590000e+003  3.1770000e+003  3.1770000e+003  3.1770000e+003  3.2660000e+003  3.4270000e+003  3.6230000e+003  3.7840000e+003  3.8020000e+003  3.6770000e+003  3.4620000e+003  3.2480000e+003  3.1410000e+003  3.1590000e+003  3.2480000e+003  3.3370000e+003  3.3200000e+003  3.1770000e+003  2.9450000e+003  2.7490000e+003  2.6590000e+003  2.6770000e+003  2.7840000e+003  2.9450000e+003  3.0160000e+003  2.9270000e+003  2.6590000e+003  2.2840000e+003  1.8920000e+003  1.5530000e+003  1.3560000e+003  1.2850000e+003  1.2670000e+003  1.1960000e+003  1.0530000e+003  8.7500000e+002  6.7800000e+002  5.3500000e+002  4.6400000e+002  4.1000000e+002  3.7500000e+002  3.0300000e+002  1.9600000e+002  0.0000000e+000 -2.3200000e+002 -4.4600000e+002 -5.3500000e+002 -5.0000000e+002 -3.9300000e+002 -3.0300000e+002 -3.2100000e+002 -4.4600000e+002 -6.6000000e+002 -8.7500000e+002 -9.9900000e+002 -9.8200000e+002 -8.3900000e+002 -6.9600000e+002 -6.0700000e+002 -6.0700000e+002 -7.1400000e+002 -8.5700000e+002 -9.4600000e+002 -9.4600000e+002 -8.7500000e+002 -7.5000000e+002 -6.4300000e+002 -6.0700000e+002 -6.4300000e+002 -7.5000000e+002 -8.2100000e+002 -8.0300000e+002 -7.1400000e+002 -5.5300000e+002 -4.1000000e+002 -3.5700000e+002 -3.9300000e+002 -4.6400000e+002 -5.0000000e+002 -4.8200000e+002 -3.9300000e+002 -2.6800000e+002 -1.7800000e+002 -1.9600000e+002 -3.3900000e+002 -5.7100000e+002 -8.2100000e+002 -9.8200000e+002 -1.0350000e+003 -9.8200000e+002 -8.7500000e+002 -7.6700000e+002 -7.1400000e+002 -7.1400000e+002 -7.3200000e+002 -7.1400000e+002 -6.6000000e+002 -5.3500000e+002 -4.2800000e+002 -3.5700000e+002 -3.7500000e+002 -4.4600000e+002 -5.5300000e+002 -6.0700000e+002 -5.7100000e+002 -4.1000000e+002 -1.7800000e+002  1.8000000e+001  7.1000000e+001 -5.4000000e+001 -2.6800000e+002 -4.8200000e+002 -6.6000000e+002 -7.1400000e+002 -6.6000000e+002 -5.3500000e+002 -3.9300000e+002 -3.0300000e+002 -3.0300000e+002 -3.5700000e+002 -4.4600000e+002 -4.4600000e+002 -3.9300000e+002 -3.0300000e+002 -2.6800000e+002 -3.0300000e+002 -3.5700000e+002 -3.7500000e+002 -3.0300000e+002 -1.4300000e+002  8.9000000e+001  3.5700000e+002  5.3500000e+002  5.7100000e+002  4.2800000e+002  1.7800000e+002 -1.0700000e+002 -2.8600000e+002 -3.3900000e+002 -2.5000000e+002 -1.2500000e+002 -1.8000000e+001 -1.8000000e+001 -7.1000000e+001 -1.6100000e+002 -2.1400000e+002 -1.9600000e+002 -1.0700000e+002  1.8000000e+001  1.0700000e+002  1.2500000e+002  3.6000000e+001 -1.0700000e+002 -2.3200000e+002 -2.6800000e+002 -2.3200000e+002 -1.2500000e+002 -7.1000000e+001 -1.0700000e+002 -1.9600000e+002 -3.2100000e+002 -4.2800000e+002 -4.6400000e+002 -4.1000000e+002 -2.8600000e+002 -1.4300000e+002 -3.6000000e+001 -1.8000000e+001 -1.8000000e+001 -1.8000000e+001  5.4000000e+001  1.9600000e+002  4.6400000e+002  7.6700000e+002  9.9900000e+002  1.1070000e+003  1.0710000e+003  9.6400000e+002  8.7500000e+002  8.7500000e+002  1.0170000e+003  1.2490000e+003  1.4460000e+003  1.5170000e+003  1.4280000e+003  1.2490000e+003  1.0530000e+003  9.2800000e+002  9.2800000e+002  9.9900000e+002  1.1070000e+003  1.1780000e+003  1.1420000e+003  9.9900000e+002  8.5700000e+002  7.5000000e+002  7.3200000e+002  7.6700000e+002  8.0300000e+002  7.6700000e+002  5.3500000e+002  1.4300000e+002 -2.8600000e+002 -6.2500000e+002 -7.6700000e+002 -7.5000000e+002 -6.0700000e+002 -4.2800000e+002 -3.2100000e+002 -3.2100000e+002 -4.2800000e+002 -5.5300000e+002 -6.0700000e+002 -5.7100000e+002 -4.6400000e+002 -3.5700000e+002 -3.2100000e+002 -4.1000000e+002 -6.0700000e+002 -8.3900000e+002 -9.9900000e+002 -1.0350000e+003 -9.2800000e+002 -7.8500000e+002 -6.7800000e+002 -6.7800000e+002 -7.6700000e+002 -8.9200000e+002 -1.0170000e+003 -1.0530000e+003 -9.8200000e+002 -8.2100000e+002 -6.6000000e+002 -5.7100000e+002 -6.0700000e+002 -7.1400000e+002 -8.5700000e+002 -9.6400000e+002 -9.8200000e+002 -8.9200000e+002 -7.5000000e+002 -6.4300000e+002 -6.0700000e+002 -6.4300000e+002 -6.6000000e+002 -5.8900000e+002 -3.5700000e+002  5.4000000e+001  6.2500000e+002  1.2850000e+003  2.0520000e+003  2.9090000e+003  3.9090000e+003  5.0690000e+003  6.2470000e+003  7.1750000e+003  7.5320000e+003  7.1390000e+003  5.9790000e+003  4.2660000e+003  2.2840000e+003  3.3900000e+002 -1.3390000e+003 -2.5700000e+003 -3.3020000e+003 -3.5690000e+003 -3.4980000e+003 -3.1770000e+003 -2.7310000e+003 -2.1770000e+003 -1.5880000e+003 -9.4600000e+002 -3.5700000e+002  1.0700000e+002  3.5700000e+002  3.9300000e+002  2.6800000e+002  1.8000000e+001 -2.5000000e+002 -4.1000000e+002 -4.4600000e+002 -3.9300000e+002 -3.5700000e+002 -3.3900000e+002 -3.9300000e+002 -4.8200000e+002 -5.3500000e+002 -5.1800000e+002 -3.9300000e+002 -1.7800000e+002  3.6000000e+001  1.7800000e+002  1.9600000e+002  7.1000000e+001 -1.2500000e+002 -3.2100000e+002 -3.9300000e+002 -3.0300000e+002 -1.0700000e+002  1.4300000e+002  3.0300000e+002  3.7500000e+002  3.5700000e+002  3.5700000e+002  3.9300000e+002  5.3500000e+002  7.3200000e+002  8.7500000e+002  8.9200000e+002  7.8500000e+002  5.8900000e+002  3.3900000e+002  1.6100000e+002  1.2500000e+002  1.9600000e+002  2.6800000e+002  3.0300000e+002  2.6800000e+002  1.6100000e+002  7.1000000e+001  5.4000000e+001  1.6100000e+002  3.5700000e+002  5.8900000e+002  7.5000000e+002  7.6700000e+002  6.6000000e+002  4.8200000e+002  3.5700000e+002  3.5700000e+002  4.6400000e+002  6.6000000e+002  8.3900000e+002  9.2800000e+002  8.9200000e+002  7.3200000e+002  5.7100000e+002  5.0000000e+002  5.8900000e+002  8.3900000e+002  1.1780000e+003  1.5170000e+003  1.7310000e+003  1.8200000e+003  1.8030000e+003  1.7850000e+003  1.8030000e+003  1.9100000e+003  2.0520000e+003  2.1420000e+003  2.0880000e+003  1.9100000e+003  1.6780000e+003  1.5350000e+003  1.5170000e+003  1.6420000e+003  1.8740000e+003  2.1240000e+003  2.3380000e+003  2.4630000e+003  2.5340000e+003  2.5520000e+003  2.6240000e+003  2.7490000e+003  2.9270000e+003  3.0700000e+003  3.1050000e+003  2.9980000e+003  2.8200000e+003  2.5880000e+003  2.4090000e+003  2.3560000e+003  2.4450000e+003  2.5520000e+003  2.6240000e+003  2.5700000e+003  2.4090000e+003  2.2130000e+003  2.0700000e+003  1.9990000e+003  2.0350000e+003  2.1240000e+003  2.1770000e+003  2.1060000e+003  1.9280000e+003  1.6600000e+003  1.3740000e+003  1.1420000e+003  9.9900000e+002  9.4600000e+002  9.2800000e+002  8.5700000e+002  6.4300000e+002  2.8600000e+002 -7.1000000e+001 -3.5700000e+002 -5.0000000e+002 -5.3500000e+002 -5.5300000e+002 -6.0700000e+002 -6.7800000e+002 -7.8500000e+002 -8.7500000e+002 -9.4600000e+002 -9.1000000e+002 -7.8500000e+002 -5.8900000e+002 -4.4600000e+002 -4.1000000e+002 -5.3500000e+002 -7.8500000e+002 -1.0890000e+003 -1.3390000e+003 -1.4100000e+003 -1.3210000e+003 -1.1240000e+003 -9.4600000e+002 -8.7500000e+002 -9.4600000e+002 -1.0710000e+003 -1.1780000e+003 -1.1600000e+003 -1.0170000e+003 -8.2100000e+002 -6.4300000e+002 -6.0700000e+002 -7.1400000e+002 -9.2800000e+002 -1.1420000e+003 -1.2850000e+003 -1.2850000e+003 -1.1780000e+003 -1.0530000e+003 -1.0170000e+003 -1.0890000e+003 -1.1960000e+003 -1.3210000e+003 -1.4100000e+003 -1.3740000e+003 -1.1780000e+003 -9.4600000e+002 -7.5000000e+002 -6.6000000e+002 -7.1400000e+002 -8.7500000e+002 -1.0530000e+003 -1.1960000e+003 -1.2310000e+003 -1.2140000e+003 -1.2140000e+003 -1.2140000e+003 -1.2310000e+003 -1.2490000e+003 -1.2670000e+003 -1.2490000e+003 -1.1420000e+003 -9.9900000e+002 -8.5700000e+002 -8.3900000e+002 -9.2800000e+002 -1.1070000e+003 -1.2670000e+003 -1.3210000e+003 -1.2310000e+003 -1.0170000e+003 -7.6700000e+002 -6.0700000e+002 -5.7100000e+002 -6.7800000e+002 -8.3900000e+002 -9.6400000e+002 -9.8200000e+002 -9.1000000e+002 -7.8500000e+002 -7.1400000e+002 -7.6700000e+002 -9.6400000e+002 -1.1960000e+003 -1.3920000e+003 -1.4460000e+003 -1.3740000e+003 -1.1780000e+003 -9.8200000e+002 -8.7500000e+002 -8.7500000e+002 -9.4600000e+002 -1.0170000e+003 -1.0350000e+003 -9.2800000e+002 -6.9600000e+002 -4.2800000e+002 -2.1400000e+002 -1.0700000e+002 -1.0700000e+002 -1.6100000e+002 -1.7800000e+002 -1.0700000e+002  5.4000000e+001  2.3200000e+002  3.5700000e+002  3.5700000e+002  2.5000000e+002  7.1000000e+001 -7.1000000e+001 -1.0700000e+002  0.0000000e+000  2.3200000e+002  4.8200000e+002  6.4300000e+002  6.6000000e+002  5.5300000e+002  4.1000000e+002  3.0300000e+002  2.6800000e+002  3.5700000e+002  4.8200000e+002  5.1800000e+002  4.2800000e+002  2.1400000e+002 -7.1000000e+001 -3.0300000e+002 -4.1000000e+002 -4.2800000e+002 -3.3900000e+002 -2.5000000e+002 -2.3200000e+002 -2.8600000e+002 -4.2800000e+002 -6.0700000e+002 -7.1400000e+002 -6.9600000e+002 -5.5300000e+002 -4.1000000e+002 -3.3900000e+002 -4.1000000e+002 -6.0700000e+002 -8.3900000e+002 -1.0350000e+003 -1.1070000e+003 -1.0530000e+003 -9.2800000e+002 -8.2100000e+002 -7.8500000e+002 -8.2100000e+002 -8.9200000e+002 -9.6400000e+002 -9.6400000e+002 -8.7500000e+002 -7.3200000e+002 -5.7100000e+002 -4.6400000e+002 -4.6400000e+002 -5.1800000e+002 -5.8900000e+002 -5.7100000e+002 -4.4600000e+002 -2.8600000e+002 -1.2500000e+002 -3.6000000e+001 -3.6000000e+001 -1.2500000e+002 -1.7800000e+002 -1.6100000e+002 -3.6000000e+001  1.7800000e+002  4.4600000e+002  6.6000000e+002  7.8500000e+002  8.2100000e+002  8.7500000e+002  1.0710000e+003  1.5530000e+003  2.3560000e+003  3.4450000e+003  4.7470000e+003  6.1040000e+003  7.2820000e+003  8.0490000e+003  8.1920000e+003  7.6570000e+003  6.5680000e+003  5.0870000e+003  3.3730000e+003  1.5880000e+003 -1.2500000e+002 -1.5350000e+003 -2.5160000e+003 -2.9630000e+003 -2.9270000e+003 -2.4990000e+003 -1.8740000e+003 -1.2670000e+003 -7.8500000e+002 -4.6400000e+002 -2.5000000e+002 -1.0700000e+002  5.4000000e+001  1.9600000e+002  3.2100000e+002  3.9300000e+002  3.7500000e+002  2.8600000e+002  1.6100000e+002  8.9000000e+001  1.0700000e+002  1.9600000e+002  3.2100000e+002  4.1000000e+002  4.1000000e+002  2.5000000e+002  0.0000000e+000 -2.8600000e+002 -4.8200000e+002 -5.0000000e+002 -3.7500000e+002 -2.1400000e+002 -1.4300000e+002 -2.1400000e+002 -3.7500000e+002 -5.3500000e+002 -6.2500000e+002 -6.2500000e+002 -5.1800000e+002 -3.7500000e+002 -2.8600000e+002 -2.8600000e+002 -4.2800000e+002 -6.6000000e+002 -8.5700000e+002 -9.6400000e+002 -8.9200000e+002 -7.1400000e+002 -5.1800000e+002 -4.1000000e+002 -4.2800000e+002 -5.5300000e+002 -6.6000000e+002 -6.7800000e+002 -5.8900000e+002 -4.4600000e+002 -3.0300000e+002 -1.9600000e+002 -1.9600000e+002 -3.2100000e+002 -4.6400000e+002 -5.3500000e+002 -5.0000000e+002 -3.0300000e+002 -7.1000000e+001  8.9000000e+001  8.9000000e+001 -7.1000000e+001 -3.2100000e+002 -5.3500000e+002 -6.6000000e+002 -6.4300000e+002 -5.3500000e+002 -4.2800000e+002 -3.9300000e+002 -4.6400000e+002 -5.7100000e+002 -6.6000000e+002 -6.2500000e+002 -4.6400000e+002 -2.1400000e+002  5.4000000e+001  2.5000000e+002  3.5700000e+002  3.2100000e+002  2.1400000e+002  1.0700000e+002  8.9000000e+001  1.7800000e+002  3.2100000e+002  4.6400000e+002  5.5300000e+002  5.3500000e+002  4.6400000e+002  3.9300000e+002  4.1000000e+002  5.7100000e+002  8.5700000e+002  1.1240000e+003  1.2850000e+003  1.2490000e+003  1.1240000e+003  1.0170000e+003  9.8200000e+002  1.0530000e+003  1.2140000e+003  1.4280000e+003  1.5710000e+003  1.5880000e+003  1.4460000e+003  1.2140000e+003  9.9900000e+002  8.5700000e+002  8.5700000e+002  9.2800000e+002  9.8200000e+002  9.4600000e+002  7.6700000e+002  4.8200000e+002  1.9600000e+002  0.0000000e+000 -5.4000000e+001 -3.6000000e+001 -3.6000000e+001 -1.6100000e+002 -4.2800000e+002 -7.6700000e+002 -1.1070000e+003 -1.3210000e+003 -1.4100000e+003 -1.3740000e+003 -1.3030000e+003 -1.2490000e+003 -1.3030000e+003 -1.5170000e+003 -1.7850000e+003 -1.9990000e+003 -2.0700000e+003 -2.0170000e+003 -1.9100000e+003 -1.8200000e+003 -1.8560000e+003 -1.9810000e+003 -2.1950000e+003 -2.3740000e+003 -2.4630000e+003 -2.4090000e+003 -2.2840000e+003 -2.1950000e+003 -2.1950000e+003 -2.3200000e+003 -2.5520000e+003 -2.7310000e+003 -2.8380000e+003 -2.8020000e+003 -2.6770000e+003 -2.5160000e+003 -2.3920000e+003 -2.3380000e+003 -2.3560000e+003 -2.4270000e+003 -2.4810000e+003 -2.4810000e+003 -2.3740000e+003 -2.1950000e+003 -2.0170000e+003 -1.9100000e+003 -1.9100000e+003 -1.9810000e+003 -2.0520000e+003 -1.9990000e+003 -1.8380000e+003 -1.6240000e+003 -1.4630000e+003 -1.4460000e+003 -1.5880000e+003 -1.8380000e+003 -2.0700000e+003 -2.2130000e+003 -2.2130000e+003 -2.0700000e+003 -1.8560000e+003 -1.6780000e+003 -1.6420000e+003 -1.7130000e+003 -1.8560000e+003 -1.9450000e+003 -1.9280000e+003 -1.7850000e+003 -1.6060000e+003 -1.4460000e+003 -1.3740000e+003 -1.4100000e+003 -1.5170000e+003 -1.6420000e+003 -1.6960000e+003 -1.6420000e+003 -1.5350000e+003 -1.4100000e+003 -1.3390000e+003 -1.3560000e+003 -1.4810000e+003 -1.6600000e+003 -1.7850000e+003 -1.7670000e+003 -1.6060000e+003 -1.4100000e+003 -1.2850000e+003 -1.3030000e+003 -1.4100000e+003 -1.5710000e+003 -1.6780000e+003 -1.6060000e+003 -1.3920000e+003 -1.1070000e+003 -8.5700000e+002 -7.5000000e+002 -7.5000000e+002 -8.5700000e+002 -9.8200000e+002 -1.0530000e+003 -1.0530000e+003 -9.6400000e+002 -8.7500000e+002 -8.5700000e+002 -9.1000000e+002 -1.0170000e+003 -1.1240000e+003 -1.1420000e+003 -1.0710000e+003 -8.7500000e+002 -6.2500000e+002 -4.2800000e+002 -3.3900000e+002 -3.9300000e+002 -5.0000000e+002 -5.7100000e+002 -5.5300000e+002 -3.9300000e+002 -1.4300000e+002  8.9000000e+001  2.1400000e+002  1.9600000e+002  5.4000000e+001 -8.9000000e+001 -1.4300000e+002 -8.9000000e+001  3.6000000e+001  1.6100000e+002  2.3200000e+002  1.9600000e+002  3.6000000e+001 -1.4300000e+002 -2.5000000e+002 -2.1400000e+002 -3.6000000e+001  1.7800000e+002  3.5700000e+002  4.1000000e+002  3.3900000e+002  2.1400000e+002  8.9000000e+001  5.4000000e+001  1.2500000e+002  1.7800000e+002  1.4300000e+002 -3.6000000e+001 -3.0300000e+002 -5.7100000e+002 -7.6700000e+002 -8.3900000e+002 -7.6700000e+002 -6.2500000e+002 -5.0000000e+002 -4.6400000e+002 -5.7100000e+002 -7.6700000e+002 -9.6400000e+002 -1.0890000e+003 -1.0890000e+003 -1.0170000e+003 -9.2800000e+002 -8.9200000e+002 -9.6400000e+002 -1.1600000e+003 -1.3560000e+003 -1.4810000e+003 -1.4630000e+003 -1.3210000e+003 -1.1600000e+003 -1.0170000e+003 -9.9900000e+002 -1.1070000e+003 -1.2670000e+003 -1.4460000e+003 -1.5350000e+003 -1.5350000e+003 -1.4100000e+003 -1.2850000e+003 -1.1960000e+003 -1.1600000e+003 -1.1600000e+003 -1.1240000e+003 -1.0170000e+003 -8.2100000e+002 -5.5300000e+002 -2.6800000e+002 -3.6000000e+001  8.9000000e+001  8.9000000e+001  3.6000000e+001  3.6000000e+001  2.1400000e+002  5.8900000e+002  1.2140000e+003  2.0520000e+003  3.0880000e+003  4.2480000e+003  5.4610000e+003  6.5680000e+003  7.3170000e+003  7.4960000e+003  6.9960000e+003  5.9080000e+003  4.3730000e+003  2.5700000e+003  6.9600000e+002 -1.0170000e+003 -2.3380000e+003 -3.1230000e+003 -3.3910000e+003 -3.2300000e+003 -2.8020000e+003 -2.2670000e+003 -1.7490000e+003 -1.2670000e+003 -8.3900000e+002 -4.6400000e+002 -1.2500000e+002  1.7800000e+002  4.2800000e+002  5.5300000e+002  5.1800000e+002  3.5700000e+002  1.9600000e+002  1.0700000e+002  1.2500000e+002  2.1400000e+002  3.0300000e+002  3.7500000e+002  4.1000000e+002  4.1000000e+002  4.1000000e+002  4.4600000e+002  5.7100000e+002  7.1400000e+002  8.3900000e+002  8.5700000e+002  7.6700000e+002  5.7100000e+002  3.7500000e+002  2.5000000e+002  2.5000000e+002  3.9300000e+002  6.0700000e+002  7.8500000e+002  8.7500000e+002  8.0300000e+002  6.6000000e+002  5.1800000e+002  4.4600000e+002  4.4600000e+002  5.1800000e+002  5.7100000e+002  5.5300000e+002  4.1000000e+002  1.9600000e+002  0.0000000e+000 -1.0700000e+002 -3.6000000e+001  1.9600000e+002  5.0000000e+002  7.1400000e+002  7.8500000e+002  7.3200000e+002  6.0700000e+002  5.3500000e+002  5.8900000e+002  8.0300000e+002  1.0890000e+003  1.3560000e+003  1.4990000e+003  1.5170000e+003  1.4280000e+003  1.3210000e+003  1.3030000e+003  1.3920000e+003  1.5710000e+003  1.7310000e+003  1.8200000e+003  1.7670000e+003  1.6060000e+003  1.4100000e+003  1.2670000e+003  1.2490000e+003  1.3560000e+003  1.5170000e+003  1.6420000e+003  1.6600000e+003  1.6060000e+003  1.5350000e+003  1.5350000e+003  1.6420000e+003  1.8560000e+003  2.1240000e+003  2.3200000e+003  2.3920000e+003  2.3380000e+003  2.2310000e+003  2.1420000e+003  2.1600000e+003  2.2670000e+003  2.4270000e+003  2.5700000e+003  2.6410000e+003  2.5880000e+003  2.4450000e+003  2.2490000e+003  2.1240000e+003  2.1600000e+003  2.3740000e+003  2.6590000e+003  2.9270000e+003  3.0340000e+003  3.0160000e+003  2.9270000e+003  2.8730000e+003  2.8910000e+003  3.0160000e+003  3.1950000e+003  3.2840000e+003  3.2130000e+003  2.9630000e+003  2.6060000e+003  2.3020000e+003  2.1060000e+003  2.0170000e+003  2.0170000e+003  2.0350000e+003  1.9810000e+003  1.8030000e+003  1.4990000e+003  1.1600000e+003  8.9200000e+002  7.1400000e+002  6.2500000e+002  5.8900000e+002  5.3500000e+002  4.1000000e+002  2.5000000e+002  5.4000000e+001 -7.1000000e+001 -1.0700000e+002 -8.9000000e+001 -5.4000000e+001 -1.0700000e+002 -2.8600000e+002 -5.7100000e+002 -9.1000000e+002 -1.1960000e+003 -1.3210000e+003 -1.2670000e+003 -1.0530000e+003 -7.3200000e+002 -4.6400000e+002 -2.8600000e+002 -2.5000000e+002 -3.0300000e+002 -3.7500000e+002 -4.1000000e+002 -3.7500000e+002 -3.2100000e+002 -3.0300000e+002 -3.9300000e+002 -5.5300000e+002 -7.3200000e+002 -8.2100000e+002 -7.5000000e+002 -5.7100000e+002 -3.3900000e+002 -1.6100000e+002 -8.9000000e+001 -1.2500000e+002 -2.3200000e+002 -3.3900000e+002 -4.2800000e+002 -4.4600000e+002 -3.7500000e+002 -2.6800000e+002 -1.9600000e+002 -1.4300000e+002 -1.6100000e+002 -2.1400000e+002 -2.3200000e+002 -1.9600000e+002 -8.9000000e+001  0.0000000e+000  5.4000000e+001  0.0000000e+000 -1.6100000e+002 -3.3900000e+002 -4.8200000e+002 -4.8200000e+002 -3.5700000e+002 -2.1400000e+002 -1.6100000e+002 -2.1400000e+002 -3.5700000e+002 -5.5300000e+002 -6.7800000e+002 -6.9600000e+002 -5.7100000e+002 -3.9300000e+002 -2.5000000e+002 -2.1400000e+002 -2.8600000e+002 -4.8200000e+002 -7.5000000e+002 -9.4600000e+002 -9.4600000e+002 -7.5000000e+002 -4.1000000e+002 -1.8000000e+001  2.6800000e+002  4.2800000e+002  4.4600000e+002  4.4600000e+002  4.8200000e+002  5.8900000e+002  6.9600000e+002  7.5000000e+002  6.7800000e+002  4.8200000e+002  2.3200000e+002  1.8000000e+001 -7.1000000e+001 -3.6000000e+001  1.0700000e+002  2.3200000e+002  2.6800000e+002  1.6100000e+002 -1.8000000e+001 -1.7800000e+002 -2.6800000e+002 -2.5000000e+002 -1.7800000e+002 -8.9000000e+001  1.8000000e+001  5.4000000e+001  0.0000000e+000 -1.0700000e+002 -2.3200000e+002 -3.0300000e+002 -2.8600000e+002 -2.3200000e+002 -1.6100000e+002 -1.6100000e+002 -2.3200000e+002 -3.7500000e+002 -5.0000000e+002 -5.5300000e+002 -4.8200000e+002 -3.3900000e+002 -2.5000000e+002 -2.1400000e+002 -2.6800000e+002 -3.7500000e+002 -4.6400000e+002 -4.4600000e+002 -3.0300000e+002 -8.9000000e+001  1.0700000e+002  1.9600000e+002  1.6100000e+002 -1.8000000e+001 -2.3200000e+002 -3.7500000e+002 -3.7500000e+002 -2.3200000e+002  1.8000000e+001  2.1400000e+002  3.0300000e+002  2.5000000e+002  1.0700000e+002  0.0000000e+000 -1.8000000e+001  8.9000000e+001  2.8600000e+002  4.8200000e+002  6.2500000e+002  6.6000000e+002  5.8900000e+002  4.4600000e+002  3.3900000e+002  3.5700000e+002  5.0000000e+002  7.3200000e+002  9.2800000e+002  9.9900000e+002  9.2800000e+002  7.6700000e+002  6.4300000e+002  5.8900000e+002  6.0700000e+002  6.9600000e+002  7.3200000e+002  6.9600000e+002  5.7100000e+002  3.7500000e+002  1.7800000e+002  7.1000000e+001  5.4000000e+001  1.2500000e+002  2.3200000e+002  3.0300000e+002  2.8600000e+002  1.7800000e+002  5.4000000e+001  0.0000000e+000  3.6000000e+001  8.9000000e+001  1.2500000e+002  5.4000000e+001 -1.0700000e+002 -3.5700000e+002 -6.2500000e+002 -8.2100000e+002 -8.5700000e+002 -7.8500000e+002 -6.9600000e+002 -6.4300000e+002 -6.4300000e+002 -6.7800000e+002 -7.5000000e+002 -8.0300000e+002 -7.8500000e+002 -6.9600000e+002 -5.5300000e+002 -4.6400000e+002 -4.6400000e+002 -5.5300000e+002 -7.5000000e+002 -9.6400000e+002 -1.1070000e+003 -1.1070000e+003 -9.8200000e+002 -8.0300000e+002 -6.9600000e+002 -7.1400000e+002 -8.5700000e+002 -1.0710000e+003 -1.2670000e+003 -1.3210000e+003 -1.2310000e+003 -9.9900000e+002 -6.9600000e+002 -4.1000000e+002 -2.5000000e+002 -1.9600000e+002 -1.4300000e+002  3.6000000e+001  4.2800000e+002  1.1240000e+003  2.0520000e+003  3.1230000e+003  4.2480000e+003  5.3190000e+003  6.1570000e+003  6.5500000e+003  6.3720000e+003  5.6220000e+003  4.4080000e+003  2.9270000e+003  1.2670000e+003 -4.1000000e+002 -1.9100000e+003 -2.9810000e+003 -3.5160000e+003 -3.5520000e+003 -3.2130000e+003 -2.6950000e+003 -2.1240000e+003 -1.6240000e+003 -1.1960000e+003 -8.3900000e+002 -5.0000000e+002 -1.6100000e+002  1.4300000e+002  3.3900000e+002  3.9300000e+002  2.8600000e+002  7.1000000e+001 -1.7800000e+002 -3.3900000e+002 -3.5700000e+002 -2.6800000e+002 -1.2500000e+002 -7.1000000e+001 -1.2500000e+002 -2.8600000e+002 -4.8200000e+002 -6.0700000e+002 -6.0700000e+002 -4.2800000e+002 -1.6100000e+002  8.9000000e+001  2.1400000e+002  1.9600000e+002  8.9000000e+001 -3.6000000e+001 -1.4300000e+002 -1.7800000e+002 -1.7800000e+002 -1.2500000e+002 -8.9000000e+001 -1.2500000e+002 -2.3200000e+002 -3.2100000e+002 -3.2100000e+002 -2.1400000e+002  0.0000000e+000  1.9600000e+002  3.0300000e+002  2.5000000e+002  8.9000000e+001 -7.1000000e+001 -1.6100000e+002 -8.9000000e+001  5.4000000e+001  2.5000000e+002  3.7500000e+002  3.9300000e+002  3.0300000e+002  1.4300000e+002  0.0000000e+000 -3.6000000e+001  3.6000000e+001  1.7800000e+002  3.0300000e+002  3.7500000e+002  3.3900000e+002  2.5000000e+002  1.2500000e+002  7.1000000e+001  1.6100000e+002  3.5700000e+002  5.8900000e+002  7.6700000e+002  8.5700000e+002  8.2100000e+002  6.7800000e+002  5.3500000e+002  4.6400000e+002  5.0000000e+002  6.6000000e+002  8.5700000e+002  9.8200000e+002  9.9900000e+002  9.2800000e+002  8.9200000e+002  9.4600000e+002  1.1420000e+003  1.3920000e+003  1.6240000e+003  1.7850000e+003  1.7850000e+003  1.7130000e+003  1.5880000e+003  1.5170000e+003  1.5170000e+003  1.6060000e+003  1.7310000e+003  1.8380000e+003  1.8200000e+003  1.6960000e+003  1.5350000e+003  1.4280000e+003  1.4280000e+003  1.5530000e+003  1.7130000e+003  1.8560000e+003  1.8920000e+003  1.7850000e+003  1.6420000e+003  1.5710000e+003  1.6600000e+003  1.8560000e+003  2.0880000e+003  2.2310000e+003  2.2310000e+003  2.0350000e+003  1.6960000e+003  1.3030000e+003  9.6400000e+002  7.5000000e+002  6.7800000e+002  6.7800000e+002  6.7800000e+002  6.4300000e+002  5.0000000e+002  3.0300000e+002  1.0700000e+002 -1.8000000e+001 -7.1000000e+001 -1.0700000e+002 -1.6100000e+002 -2.6800000e+002 -5.1800000e+002 -8.3900000e+002 -1.1600000e+003 -1.3390000e+003 -1.3560000e+003 -1.2850000e+003 -1.2140000e+003 -1.2310000e+003 -1.3390000e+003 -1.5170000e+003 -1.6780000e+003 -1.7490000e+003 -1.7130000e+003 -1.6240000e+003 -1.5530000e+003 -1.5880000e+003 -1.7310000e+003 -1.9280000e+003 -2.1240000e+003 -2.2130000e+003 -2.1420000e+003 -1.9630000e+003 -1.7490000e+003 -1.5880000e+003 -1.5170000e+003 -1.5710000e+003 -1.6960000e+003 -1.8380000e+003 -1.9280000e+003 -1.9100000e+003 -1.8380000e+003 -1.7310000e+003 -1.6780000e+003 -1.6960000e+003 -1.7670000e+003 -1.8200000e+003 -1.8030000e+003 -1.6960000e+003 -1.4990000e+003 -1.3210000e+003 -1.1960000e+003 -1.1780000e+003 -1.2850000e+003 -1.4280000e+003 -1.5530000e+003 -1.6060000e+003 -1.5350000e+003 -1.4100000e+003 -1.2670000e+003 -1.2140000e+003 -1.2490000e+003 -1.3560000e+003 -1.4810000e+003 -1.5530000e+003 -1.5530000e+003 -1.5170000e+003 -1.4630000e+003 -1.4630000e+003 -1.5170000e+003 -1.6600000e+003 -1.8030000e+003 -1.8740000e+003 -1.8030000e+003 -1.6060000e+003 -1.3560000e+003 -1.1240000e+003 -1.0530000e+003 -1.1070000e+003 -1.2310000e+003 -1.3390000e+003 -1.3740000e+003 -1.3210000e+003 -1.1600000e+003 -9.8200000e+002 -8.5700000e+002 -8.5700000e+002 -9.6400000e+002 -1.0890000e+003 -1.1600000e+003 -1.1070000e+003 -9.6400000e+002 -8.2100000e+002 -7.5000000e+002 -8.0300000e+002 -9.6400000e+002 -1.1420000e+003 -1.2310000e+003 -1.1960000e+003 -1.0350000e+003 -8.3900000e+002 -6.9600000e+002 -7.1400000e+002 -8.9200000e+002 -1.1420000e+003 -1.3560000e+003 -1.4280000e+003 -1.3920000e+003 -1.2670000e+003 -1.1420000e+003 -1.0890000e+003 -1.1070000e+003 -1.1780000e+003 -1.2140000e+003 -1.1780000e+003 -1.0530000e+003 -8.7500000e+002 -7.6700000e+002 -7.8500000e+002 -8.9200000e+002 -9.9900000e+002 -1.0530000e+003 -9.8200000e+002 -7.8500000e+002 -5.0000000e+002 -2.3200000e+002 -3.6000000e+001  1.8000000e+001 -5.4000000e+001 -1.9600000e+002 -3.3900000e+002 -3.5700000e+002 -2.8600000e+002 -1.4300000e+002 -3.6000000e+001 -1.8000000e+001 -8.9000000e+001 -2.1400000e+002 -3.0300000e+002 -2.8600000e+002 -1.6100000e+002  5.4000000e+001  2.3200000e+002  2.8600000e+002  1.6100000e+002 -5.4000000e+001 -2.6800000e+002 -3.7500000e+002 -3.3900000e+002 -1.9600000e+002 -7.1000000e+001 -1.8000000e+001 -1.0700000e+002 -3.0300000e+002 -5.7100000e+002 -8.0300000e+002 -9.4600000e+002 -9.8200000e+002 -9.8200000e+002 -9.9900000e+002 -1.1070000e+003 -1.2670000e+003 -1.4630000e+003 -1.6060000e+003 -1.6600000e+003 -1.5710000e+003 -1.3740000e+003 -1.1960000e+003 -1.1070000e+003 -1.1780000e+003 -1.3740000e+003 -1.5710000e+003 -1.6960000e+003 -1.6780000e+003 -1.5530000e+003 -1.3920000e+003 -1.3030000e+003 -1.3560000e+003 -1.5710000e+003 -1.8560000e+003 -2.0520000e+003 -2.1240000e+003 -2.0520000e+003 -1.8740000e+003 -1.6960000e+003 -1.5530000e+003 -1.5170000e+003 -1.5880000e+003 -1.6960000e+003 -1.7670000e+003 -1.7310000e+003 -1.6600000e+003 -1.5710000e+003 -1.5350000e+003 -1.6060000e+003 -1.7850000e+003 -1.9630000e+003 -2.0350000e+003 -1.9280000e+003 -1.6600000e+003 -1.2850000e+003 -9.2800000e+002 -6.6000000e+002 -4.4600000e+002 -1.6100000e+002  3.5700000e+002  1.1960000e+003  2.3920000e+003  3.8190000e+003  5.1760000e+003  6.1220000e+003  6.3540000e+003  5.7830000e+003  4.6230000e+003  3.1770000e+003  1.6420000e+003  1.6100000e+002 -1.1600000e+003 -2.3020000e+003 -3.2130000e+003 -3.8190000e+003 -4.1050000e+003 -4.0160000e+003 -3.5870000e+003 -2.8910000e+003 -2.1240000e+003 -1.4460000e+003 -9.8200000e+002 -7.5000000e+002 -6.9600000e+002 -6.9600000e+002 -6.6000000e+002 -5.7100000e+002 -4.6400000e+002 -4.2800000e+002 -5.0000000e+002 -6.9600000e+002 -9.2800000e+002 -1.1240000e+003 -1.1960000e+003 -1.1780000e+003 -1.0890000e+003 -9.8200000e+002 -8.7500000e+002 -8.3900000e+002 -8.7500000e+002 -9.2800000e+002 -9.1000000e+002 -7.8500000e+002 -5.5300000e+002 -3.3900000e+002 -1.9600000e+002 -2.1400000e+002 -3.7500000e+002 -5.8900000e+002 -7.6700000e+002 -8.7500000e+002 -8.7500000e+002 -8.0300000e+002 -6.9600000e+002 -6.4300000e+002 -6.4300000e+002 -6.9600000e+002 -7.3200000e+002 -6.7800000e+002 -5.0000000e+002 -2.5000000e+002 -5.4000000e+001  0.0000000e+000 -1.2500000e+002 -3.7500000e+002 -5.8900000e+002 -7.3200000e+002 -7.3200000e+002 -6.2500000e+002 -4.1000000e+002 -1.9600000e+002 -7.1000000e+001 -7.1000000e+001 -1.2500000e+002 -1.6100000e+002 -1.0700000e+002  3.6000000e+001  2.1400000e+002  3.2100000e+002  3.3900000e+002  2.6800000e+002  1.7800000e+002  1.2500000e+002  1.4300000e+002  2.6800000e+002  4.6400000e+002  6.2500000e+002  6.9600000e+002  6.6000000e+002  5.3500000e+002  4.2800000e+002  4.1000000e+002  5.1800000e+002  7.3200000e+002  9.4600000e+002  1.1070000e+003  1.1600000e+003  1.1240000e+003  1.0350000e+003  9.8200000e+002  9.8200000e+002  1.0890000e+003  1.2490000e+003  1.4100000e+003  1.4990000e+003  1.5170000e+003  1.4990000e+003  1.4810000e+003  1.5530000e+003  1.7310000e+003  1.9810000e+003  2.2310000e+003  2.3560000e+003  2.3380000e+003  2.1770000e+003  1.9450000e+003  1.7310000e+003  1.5880000e+003  1.5710000e+003  1.6420000e+003  1.7850000e+003  1.8920000e+003  1.9280000e+003  1.8920000e+003  1.8560000e+003  1.8740000e+003  1.9280000e+003  1.9810000e+003  1.9810000e+003  1.8560000e+003  1.6060000e+003  1.2850000e+003  9.9900000e+002  7.6700000e+002  6.4300000e+002  6.0700000e+002  5.8900000e+002  5.1800000e+002  3.2100000e+002  0.0000000e+000 -3.5700000e+002 -6.4300000e+002 -7.5000000e+002 -6.9600000e+002 -5.7100000e+002 -5.3500000e+002 -6.0700000e+002 -8.0300000e+002 -1.0350000e+003 -1.2310000e+003 -1.3030000e+003 -1.2140000e+003 -1.0530000e+003 -9.1000000e+002 -8.7500000e+002 -9.6400000e+002 -1.1600000e+003 -1.3920000e+003 -1.4990000e+003 -1.4990000e+003 -1.3740000e+003 -1.2140000e+003 -1.1070000e+003 -1.0710000e+003 -1.1420000e+003 -1.2310000e+003 -1.2490000e+003 -1.1780000e+003 -1.0170000e+003 -8.3900000e+002 -7.5000000e+002 -8.0300000e+002 -9.8200000e+002 -1.1960000e+003 -1.3560000e+003 -1.4100000e+003 -1.3030000e+003 -1.0890000e+003 -8.9200000e+002 -7.6700000e+002 -7.5000000e+002 -8.2100000e+002 -8.7500000e+002 -8.7500000e+002 -8.2100000e+002 -7.1400000e+002 -6.0700000e+002 -5.5300000e+002 -6.0700000e+002 -7.1400000e+002 -8.5700000e+002 -9.1000000e+002 -8.3900000e+002 -6.6000000e+002 -4.6400000e+002 -3.7500000e+002 -4.2800000e+002 -5.8900000e+002 -8.3900000e+002 -1.0530000e+003 -1.1600000e+003 -1.1070000e+003 -9.4600000e+002 -7.3200000e+002 -5.1800000e+002 -3.9300000e+002 -3.3900000e+002 -3.2100000e+002 -2.6800000e+002 -1.4300000e+002  1.8000000e+001  1.7800000e+002  2.3200000e+002  1.2500000e+002 -1.0700000e+002 -3.5700000e+002 -5.5300000e+002 -6.2500000e+002 -5.5300000e+002 -4.1000000e+002 -2.5000000e+002 -1.7800000e+002 -2.3200000e+002 -3.3900000e+002 -4.2800000e+002 -4.2800000e+002 -3.5700000e+002 -2.5000000e+002 -1.6100000e+002 -1.7800000e+002 -3.3900000e+002 -5.7100000e+002 -7.8500000e+002 -8.5700000e+002 -8.3900000e+002 -7.5000000e+002 -6.6000000e+002 -6.0700000e+002 -5.7100000e+002 -5.1800000e+002 -4.1000000e+002 -2.3200000e+002  0.0000000e+000  2.5000000e+002  4.2800000e+002  5.1800000e+002  4.4600000e+002  2.5000000e+002  1.8000000e+001 -1.2500000e+002 -1.2500000e+002  1.8000000e+001  2.6800000e+002  5.1800000e+002  7.3200000e+002  8.3900000e+002  8.3900000e+002  8.2100000e+002  8.5700000e+002  9.8200000e+002  1.1420000e+003  1.2670000e+003  1.2670000e+003  1.1240000e+003  8.5700000e+002  5.5300000e+002  3.2100000e+002  2.3200000e+002  3.0300000e+002  4.4600000e+002  5.7100000e+002  5.8900000e+002  5.0000000e+002  3.2100000e+002  1.6100000e+002  7.1000000e+001  7.1000000e+001  1.2500000e+002  1.2500000e+002 -1.8000000e+001 -2.6800000e+002 -6.2500000e+002 -9.8200000e+002 -1.2670000e+003 -1.3920000e+003 -1.3390000e+003 -1.1780000e+003 -9.6400000e+002 -8.0300000e+002 -7.3200000e+002 -7.3200000e+002 -7.1400000e+002 -6.4300000e+002 -4.8200000e+002 -3.2100000e+002 -2.3200000e+002 -3.0300000e+002 -5.3500000e+002 -8.2100000e+002 -1.0890000e+003 -1.2140000e+003 -1.1600000e+003 -1.0350000e+003 -9.2800000e+002 -8.9200000e+002 -9.4600000e+002 -9.9900000e+002 -9.9900000e+002 -9.4600000e+002 -7.8500000e+002 -5.8900000e+002 -4.4600000e+002 -3.7500000e+002 -4.1000000e+002 -5.3500000e+002 -6.7800000e+002 -7.6700000e+002 -7.1400000e+002 -5.5300000e+002 -3.3900000e+002 -1.6100000e+002 -5.4000000e+001  1.8000000e+001  1.6100000e+002  5.5300000e+002  1.3030000e+003  2.4090000e+003  3.7840000e+003  5.2290000e+003  6.4790000e+003  7.1930000e+003  7.1570000e+003  6.4070000e+003  5.1580000e+003  3.6770000e+003  2.1240000e+003  5.8900000e+002 -8.7500000e+002 -2.1600000e+003 -3.1590000e+003 -3.7480000e+003 -3.8730000e+003 -3.5520000e+003 -2.9450000e+003 -2.1770000e+003 -1.4100000e+003 -7.8500000e+002 -3.5700000e+002 -7.1000000e+001  1.0700000e+002  2.8600000e+002  4.4600000e+002  5.7100000e+002  6.6000000e+002  6.6000000e+002  5.0000000e+002  2.5000000e+002 -1.8000000e+001 -2.1400000e+002 -2.5000000e+002 -1.6100000e+002  0.0000000e+000  1.4300000e+002  2.1400000e+002  2.1400000e+002  1.7800000e+002  1.6100000e+002  2.3200000e+002  3.7500000e+002  5.3500000e+002  6.4300000e+002  6.2500000e+002  5.1800000e+002  3.2100000e+002  1.4300000e+002  3.6000000e+001  1.8000000e+001  7.1000000e+001  1.6100000e+002  1.9600000e+002  1.7800000e+002  1.2500000e+002  1.0700000e+002  2.1400000e+002  4.2800000e+002  6.9600000e+002  9.4600000e+002  1.0530000e+003  9.8200000e+002  8.0300000e+002  6.0700000e+002  4.8200000e+002  4.8200000e+002  6.0700000e+002  7.6700000e+002  9.1000000e+002  9.2800000e+002  8.2100000e+002  6.7800000e+002  5.8900000e+002  6.2500000e+002  7.6700000e+002  9.8200000e+002  1.1780000e+003  1.2850000e+003  1.2310000e+003  1.0890000e+003  9.1000000e+002  7.8500000e+002  7.6700000e+002  8.5700000e+002  9.8200000e+002  1.0890000e+003  1.1420000e+003  1.1240000e+003  1.1240000e+003  1.1420000e+003  1.2310000e+003  1.3740000e+003  1.5530000e+003  1.7490000e+003  1.8740000e+003  1.8920000e+003  1.8560000e+003  1.8030000e+003  1.8200000e+003  1.9100000e+003  2.0350000e+003  2.1420000e+003  2.1950000e+003  2.1770000e+003  2.1420000e+003  2.1240000e+003  2.2310000e+003  2.4450000e+003  2.7130000e+003  2.9090000e+003  2.9810000e+003  2.8730000e+003  2.6590000e+003  2.4270000e+003  2.2840000e+003  2.2670000e+003  2.3560000e+003  2.4630000e+003  2.4990000e+003  2.4090000e+003  2.2130000e+003  1.9990000e+003  1.8030000e+003  1.7310000e+003  1.7490000e+003  1.8030000e+003  1.8380000e+003  1.7850000e+003  1.6420000e+003  1.4630000e+003  1.3210000e+003  1.2310000e+003  1.1780000e+003  1.1070000e+003  9.9900000e+002  7.5000000e+002  3.7500000e+002 -1.8000000e+001 -3.3900000e+002 -4.8200000e+002 -4.4600000e+002 -2.5000000e+002 -1.8000000e+001  1.4300000e+002  1.4300000e+002 -1.8000000e+001 -2.6800000e+002 -5.0000000e+002 -6.4300000e+002 -6.6000000e+002 -6.0700000e+002 -5.7100000e+002 -6.6000000e+002 -8.7500000e+002 -1.1420000e+003 -1.3210000e+003 -1.3390000e+003 -1.2490000e+003 -1.0530000e+003 -8.7500000e+002 -7.5000000e+002 -7.5000000e+002 -8.5700000e+002 -9.9900000e+002 -1.0890000e+003 -1.0530000e+003 -9.4600000e+002 -8.9200000e+002 -9.2800000e+002 -1.0710000e+003 -1.3030000e+003 -1.5350000e+003 -1.6600000e+003 -1.5880000e+003 -1.3210000e+003 -9.6400000e+002 -6.4300000e+002 -4.6400000e+002 -4.8200000e+002 -6.0700000e+002 -7.5000000e+002 -8.0300000e+002 -7.3200000e+002 -5.7100000e+002 -3.9300000e+002 -3.0300000e+002 -3.3900000e+002 -5.0000000e+002 -6.9600000e+002 -8.0300000e+002 -8.2100000e+002 -7.3200000e+002 -6.2500000e+002 -5.8900000e+002 -6.6000000e+002 -7.8500000e+002 -8.9200000e+002 -8.9200000e+002 -7.8500000e+002 -6.2500000e+002 -4.4600000e+002 -3.3900000e+002 -3.3900000e+002 -4.4600000e+002 -6.4300000e+002 -8.2100000e+002 -8.9200000e+002 -8.0300000e+002 -5.7100000e+002 -3.0300000e+002 -1.0700000e+002 -1.8000000e+001 -7.1000000e+001 -2.1400000e+002 -3.3900000e+002 -3.9300000e+002 -3.3900000e+002 -2.8600000e+002 -3.0300000e+002 -4.2800000e+002 -6.4300000e+002 -8.7500000e+002 -9.9900000e+002 -9.8200000e+002 -8.0300000e+002 -5.0000000e+002 -2.3200000e+002 -7.1000000e+001 -7.1000000e+001 -1.7800000e+002 -3.0300000e+002 -3.5700000e+002 -2.6800000e+002 -7.1000000e+001  1.4300000e+002  2.8600000e+002  2.6800000e+002  1.0700000e+002 -7.1000000e+001 -1.9600000e+002 -1.6100000e+002  0.0000000e+000  2.1400000e+002  3.9300000e+002  4.6400000e+002  4.2800000e+002  3.3900000e+002  2.6800000e+002  2.8600000e+002  4.1000000e+002  6.0700000e+002  7.6700000e+002  8.2100000e+002  6.9600000e+002  4.4600000e+002  2.1400000e+002  8.9000000e+001  1.7800000e+002  3.7500000e+002  5.7100000e+002  6.7800000e+002  6.6000000e+002  5.0000000e+002  2.8600000e+002  5.4000000e+001 -1.0700000e+002 -1.9600000e+002 -1.9600000e+002 -1.7800000e+002 -1.7800000e+002 -2.3200000e+002 -3.0300000e+002 -3.7500000e+002 -3.9300000e+002 -3.7500000e+002 -3.0300000e+002 -2.3200000e+002 -2.5000000e+002 -3.7500000e+002 -5.8900000e+002 -8.0300000e+002 -9.2800000e+002 -9.4600000e+002 -8.5700000e+002 -7.3200000e+002 -6.7800000e+002 -7.1400000e+002 -8.7500000e+002 -1.0530000e+003 -1.1780000e+003 -1.1780000e+003 -1.0710000e+003 -9.4600000e+002 -9.1000000e+002 -1.0350000e+003 -1.2670000e+003 -1.4810000e+003 -1.6420000e+003 -1.6600000e+003 -1.5170000e+003 -1.2850000e+003 -1.0530000e+003 -9.1000000e+002 -8.5700000e+002 -8.7500000e+002 -9.1000000e+002 -8.5700000e+002 -6.9600000e+002 -4.1000000e+002 -8.9000000e+001  1.7800000e+002  2.8600000e+002  2.8600000e+002  3.0300000e+002  5.1800000e+002  1.0530000e+003  1.9810000e+003  3.2300000e+003  4.6580000e+003  6.0500000e+003  7.0850000e+003  7.5320000e+003  7.2280000e+003  6.3000000e+003  4.9620000e+003  3.4270000e+003  1.8380000e+003  2.6800000e+002 -1.1600000e+003 -2.3380000e+003 -3.1230000e+003 -3.4450000e+003 -3.3200000e+003 -2.8560000e+003 -2.2130000e+003 -1.6060000e+003 -1.1420000e+003 -8.3900000e+002 -6.4300000e+002 -5.0000000e+002 -3.3900000e+002 -1.2500000e+002  8.9000000e+001  2.1400000e+002  2.3200000e+002  1.2500000e+002 -5.4000000e+001 -1.6100000e+002 -1.6100000e+002 -5.4000000e+001  1.4300000e+002  3.0300000e+002  3.7500000e+002  3.3900000e+002  2.1400000e+002  1.0700000e+002  5.4000000e+001  1.2500000e+002  2.6800000e+002  4.4600000e+002  5.3500000e+002  5.1800000e+002  3.7500000e+002  1.9600000e+002  8.9000000e+001  1.4300000e+002  3.2100000e+002  5.3500000e+002  6.7800000e+002  6.6000000e+002  5.1800000e+002  3.3900000e+002  1.9600000e+002  1.6100000e+002  2.1400000e+002  3.3900000e+002  4.6400000e+002  5.5300000e+002  5.5300000e+002  5.0000000e+002  4.4600000e+002  4.6400000e+002  5.8900000e+002  7.5000000e+002  8.7500000e+002  9.2800000e+002  8.3900000e+002  6.7800000e+002  5.0000000e+002  3.9300000e+002  3.9300000e+002  5.1800000e+002  7.1400000e+002  9.1000000e+002  1.0350000e+003  1.0890000e+003  1.0710000e+003  1.0530000e+003  1.0890000e+003  1.2140000e+003  1.3560000e+003  1.4630000e+003  1.4990000e+003  1.4460000e+003  1.3210000e+003  1.1780000e+003  1.1240000e+003  1.1960000e+003  1.3740000e+003  1.6060000e+003  1.7490000e+003  1.7850000e+003  1.7490000e+003  1.6960000e+003  1.6960000e+003  1.8200000e+003  2.0170000e+003  2.2310000e+003  2.3920000e+003  2.4270000e+003  2.3560000e+003  2.1950000e+003  2.0520000e+003  1.9810000e+003  2.0350000e+003  2.1420000e+003  2.2670000e+003  2.3560000e+003  2.3920000e+003  2.3920000e+003  2.3920000e+003  2.3920000e+003  2.4270000e+003  2.4990000e+003  2.5700000e+003  2.6240000e+003  2.5700000e+003  2.4270000e+003  2.2310000e+003  2.0700000e+003  1.9810000e+003  2.0170000e+003  2.1240000e+003  2.1950000e+003  2.1420000e+003  1.9450000e+003  1.6420000e+003  1.3210000e+003  1.0710000e+003  9.4600000e+002  9.2800000e+002  8.9200000e+002  7.8500000e+002  5.1800000e+002  1.7800000e+002 -1.2500000e+002 -2.8600000e+002 -3.0300000e+002 -2.1400000e+002 -1.6100000e+002 -2.1400000e+002 -3.7500000e+002 -5.8900000e+002 -7.8500000e+002 -8.9200000e+002 -8.7500000e+002 -7.8500000e+002 -6.9600000e+002 -6.6000000e+002 -7.5000000e+002 -9.2800000e+002 -1.1240000e+003 -1.2850000e+003 -1.2850000e+003 -1.1420000e+003 -9.2800000e+002 -7.1400000e+002 -6.2500000e+002 -6.7800000e+002 -8.0300000e+002 -9.8200000e+002 -1.1240000e+003 -1.2140000e+003 -1.2310000e+003 -1.2140000e+003 -1.2490000e+003 -1.3560000e+003 -1.4810000e+003 -1.5710000e+003 -1.5530000e+003 -1.4100000e+003 -1.1420000e+003 -8.3900000e+002 -6.2500000e+002 -5.5300000e+002 -6.4300000e+002 -8.3900000e+002 -1.0170000e+003 -1.0890000e+003 -1.0530000e+003 -9.4600000e+002 -8.7500000e+002 -9.2800000e+002 -1.0530000e+003 -1.2140000e+003 -1.3030000e+003 -1.2670000e+003 -1.1070000e+003 -8.7500000e+002 -6.2500000e+002 -4.4600000e+002 -4.4600000e+002 -6.2500000e+002 -8.9200000e+002 -1.1600000e+003 -1.3210000e+003 -1.3390000e+003 -1.2140000e+003 -1.0170000e+003 -8.5700000e+002 -7.6700000e+002 -7.3200000e+002 -7.3200000e+002 -7.1400000e+002 -6.2500000e+002 -5.1800000e+002 -4.4600000e+002 -4.8200000e+002 -6.2500000e+002 -8.2100000e+002 -9.8200000e+002 -1.0170000e+003 -9.2800000e+002 -7.8500000e+002 -6.2500000e+002 -5.1800000e+002 -5.1800000e+002 -5.8900000e+002 -6.7800000e+002 -7.3200000e+002 -6.6000000e+002 -5.0000000e+002 -3.2100000e+002 -2.1400000e+002 -2.5000000e+002 -4.6400000e+002 -7.3200000e+002 -9.6400000e+002 -1.0530000e+003 -1.0170000e+003 -8.9200000e+002 -7.5000000e+002 -6.7800000e+002 -6.9600000e+002 -7.6700000e+002 -8.0300000e+002 -7.5000000e+002 -6.0700000e+002 -3.7500000e+002 -1.6100000e+002 -1.8000000e+001  0.0000000e+000 -1.2500000e+002 -2.6800000e+002 -3.0300000e+002 -1.9600000e+002  3.6000000e+001  2.8600000e+002  4.6400000e+002  5.0000000e+002  4.2800000e+002  3.0300000e+002  2.3200000e+002  2.6800000e+002  4.1000000e+002  6.2500000e+002  8.0300000e+002  8.7500000e+002  8.0300000e+002  6.2500000e+002  4.2800000e+002  3.3900000e+002  3.5700000e+002  4.2800000e+002  4.6400000e+002  3.9300000e+002  1.6100000e+002 -1.7800000e+002 -5.0000000e+002 -6.7800000e+002 -7.1400000e+002 -6.2500000e+002 -4.8200000e+002 -3.7500000e+002 -3.7500000e+002 -4.8200000e+002 -6.2500000e+002 -7.6700000e+002 -8.2100000e+002 -8.2100000e+002 -8.2100000e+002 -8.9200000e+002 -1.0530000e+003 -1.3030000e+003 -1.5880000e+003 -1.8030000e+003 -1.8920000e+003 -1.8200000e+003 -1.6420000e+003 -1.4280000e+003 -1.2670000e+003 -1.1960000e+003 -1.2140000e+003 -1.2850000e+003 -1.3030000e+003 -1.2310000e+003 -1.1070000e+003 -9.6400000e+002 -9.2800000e+002 -1.0170000e+003 -1.2490000e+003 -1.4990000e+003 -1.6780000e+003 -1.6960000e+003 -1.5170000e+003 -1.2310000e+003 -9.4600000e+002 -7.5000000e+002 -6.6000000e+002 -6.7800000e+002 -6.4300000e+002 -4.8200000e+002 -2.1400000e+002  1.0700000e+002  3.9300000e+002  5.8900000e+002  6.9600000e+002  8.5700000e+002  1.1960000e+003  1.9100000e+003  3.0160000e+003  4.4620000e+003  5.9790000e+003  7.2280000e+003  7.8170000e+003  7.5320000e+003  6.4430000e+003  4.8370000e+003  3.0160000e+003  1.1960000e+003 -4.4600000e+002 -1.8200000e+003 -2.8730000e+003 -3.6050000e+003 -3.9980000e+003 -4.0510000e+003 -3.7660000e+003 -3.1590000e+003 -2.3740000e+003 -1.5880000e+003 -9.6400000e+002 -5.1800000e+002 -2.6800000e+002 -1.0700000e+002  5.4000000e+001  2.1400000e+002  3.9300000e+002  5.0000000e+002  5.3500000e+002  4.2800000e+002  2.1400000e+002 -5.4000000e+001 -2.6800000e+002 -3.7500000e+002 -3.0300000e+002 -1.4300000e+002  3.6000000e+001  1.4300000e+002  1.0700000e+002 -5.4000000e+001 -2.3200000e+002 -3.2100000e+002 -2.3200000e+002 -1.8000000e+001  1.7800000e+002  2.8600000e+002  2.5000000e+002  1.0700000e+002 -8.9000000e+001 -2.5000000e+002 -3.0300000e+002 -2.3200000e+002 -7.1000000e+001  5.4000000e+001  7.1000000e+001  0.0000000e+000 -8.9000000e+001 -1.2500000e+002 -5.4000000e+001  8.9000000e+001  2.8600000e+002  4.2800000e+002  4.8200000e+002  4.2800000e+002  3.2100000e+002  2.3200000e+002  2.6800000e+002  3.7500000e+002  5.3500000e+002  6.6000000e+002  6.9600000e+002  6.0700000e+002  4.2800000e+002  2.5000000e+002  1.6100000e+002  2.3200000e+002  4.2800000e+002  6.7800000e+002  8.2100000e+002  8.3900000e+002  7.5000000e+002  5.8900000e+002  4.8200000e+002  4.8200000e+002  6.6000000e+002  9.4600000e+002  1.2490000e+003  1.4280000e+003  1.4280000e+003  1.2850000e+003  1.1240000e+003  1.0350000e+003  1.1070000e+003  1.2670000e+003  1.4280000e+003  1.4810000e+003  1.4100000e+003  1.2850000e+003  1.1780000e+003  1.1780000e+003  1.2850000e+003  1.5350000e+003  1.8560000e+003  2.1600000e+003  2.3740000e+003  2.4450000e+003  2.3920000e+003  2.3020000e+003  2.2490000e+003  2.2490000e+003  2.3020000e+003  2.3740000e+003  2.4090000e+003  2.3380000e+003  2.1770000e+003  2.0170000e+003  1.9810000e+003  2.1240000e+003  2.3560000e+003  2.5880000e+003  2.6590000e+003  2.5700000e+003  2.3020000e+003  1.9630000e+003  1.7130000e+003  1.5710000e+003  1.5170000e+003  1.5170000e+003  1.4630000e+003  1.3210000e+003  1.0890000e+003  7.8500000e+002  5.5300000e+002  4.2800000e+002  4.1000000e+002  4.4600000e+002  4.6400000e+002  3.5700000e+002  1.2500000e+002 -1.9600000e+002 -4.8200000e+002 -6.2500000e+002 -6.2500000e+002 -4.8200000e+002 -3.3900000e+002 -2.6800000e+002 -3.2100000e+002 -5.0000000e+002 -7.5000000e+002 -9.2800000e+002 -9.8200000e+002 -9.2800000e+002 -8.2100000e+002 -7.6700000e+002 -7.8500000e+002 -9.2800000e+002 -1.1420000e+003 -1.3560000e+003 -1.4630000e+003 -1.4100000e+003 -1.2310000e+003 -1.0530000e+003 -9.6400000e+002 -1.0530000e+003 -1.2490000e+003 -1.4630000e+003 -1.5530000e+003 -1.4990000e+003 -1.3390000e+003 -1.1420000e+003 -1.0170000e+003 -9.9900000e+002 -1.0890000e+003 -1.2310000e+003 -1.3560000e+003 -1.3740000e+003 -1.3030000e+003 -1.1780000e+003 -1.0530000e+003 -9.9900000e+002 -1.0530000e+003 -1.1600000e+003 -1.2140000e+003 -1.1420000e+003 -9.4600000e+002 -7.1400000e+002 -5.5300000e+002 -5.1800000e+002 -5.8900000e+002 -7.3200000e+002 -8.5700000e+002 -9.2800000e+002 -9.2800000e+002 -8.7500000e+002 -8.3900000e+002 -8.5700000e+002 -9.6400000e+002 -1.1240000e+003 -1.2490000e+003 -1.2850000e+003 -1.1600000e+003 -9.4600000e+002 -6.7800000e+002 -4.8200000e+002 -4.4600000e+002 -5.5300000e+002 -7.6700000e+002 -9.4600000e+002 -9.8200000e+002 -8.3900000e+002 -6.4300000e+002 -4.8200000e+002 -4.2800000e+002 -5.1800000e+002 -7.1400000e+002 -9.2800000e+002 -1.0530000e+003 -9.9900000e+002 -7.8500000e+002 -5.5300000e+002 -4.1000000e+002 -4.4600000e+002 -6.2500000e+002 -8.7500000e+002 -1.0170000e+003 -9.9900000e+002 -8.5700000e+002 -6.4300000e+002 -4.8200000e+002 -4.4600000e+002 -5.3500000e+002 -7.1400000e+002 -8.9200000e+002 -9.8200000e+002 -9.6400000e+002 -8.7500000e+002 -7.5000000e+002 -7.1400000e+002 -7.5000000e+002 -8.2100000e+002 -8.9200000e+002 -8.7500000e+002 -7.6700000e+002 -6.0700000e+002 -4.6400000e+002 -4.1000000e+002 -5.1800000e+002 -7.1400000e+002 -9.1000000e+002 -1.0170000e+003 -1.0170000e+003 -8.9200000e+002 -7.1400000e+002 -6.0700000e+002 -5.8900000e+002 -6.7800000e+002 -7.8500000e+002 -8.3900000e+002 -7.8500000e+002 -6.4300000e+002 -4.2800000e+002 -2.6800000e+002 -1.6100000e+002 -1.6100000e+002 -1.9600000e+002 -2.1400000e+002 -1.6100000e+002  0.0000000e+000  2.3200000e+002  4.8200000e+002  6.2500000e+002  6.2500000e+002  4.8200000e+002  2.5000000e+002  7.1000000e+001 -1.8000000e+001  3.6000000e+001  1.9600000e+002  3.3900000e+002  3.9300000e+002  3.3900000e+002  2.6800000e+002  2.3200000e+002  2.8600000e+002  4.2800000e+002  5.8900000e+002  6.7800000e+002  6.0700000e+002  3.9300000e+002  7.1000000e+001 -2.6800000e+002 -5.3500000e+002 -6.6000000e+002 -6.4300000e+002 -6.0700000e+002 -6.0700000e+002 -7.1400000e+002 -8.7500000e+002 -1.0350000e+003 -1.0890000e+003 -1.0350000e+003 -8.9200000e+002 -7.1400000e+002 -6.0700000e+002 -6.2500000e+002 -7.6700000e+002 -9.6400000e+002 -1.1420000e+003 -1.2310000e+003 -1.1780000e+003 -1.0530000e+003 -9.2800000e+002 -9.4600000e+002 -1.0710000e+003 -1.3210000e+003 -1.5170000e+003 -1.5710000e+003 -1.4280000e+003 -1.1960000e+003 -9.6400000e+002 -8.7500000e+002 -9.6400000e+002 -1.1600000e+003 -1.3740000e+003 -1.4990000e+003 -1.4990000e+003 -1.3390000e+003 -1.1070000e+003 -8.9200000e+002 -7.8500000e+002 -7.5000000e+002 -7.3200000e+002 -6.6000000e+002 -4.8200000e+002 -2.1400000e+002  8.9000000e+001  4.1000000e+002  7.1400000e+002  1.0710000e+003  1.6060000e+003  2.4090000e+003  3.5340000e+003  4.8900000e+003  6.2820000e+003  7.3170000e+003  7.6570000e+003  7.1570000e+003  5.9080000e+003  4.2120000e+003  2.3200000e+003  5.0000000e+002 -1.0350000e+003 -2.2130000e+003 -3.0160000e+003 -3.4980000e+003 -3.6770000e+003 -3.6230000e+003 -3.3370000e+003 -2.8560000e+003 -2.2490000e+003 -1.5710000e+003 -9.4600000e+002 -4.8200000e+002 -2.1400000e+002 -1.2500000e+002 -1.0700000e+002 -1.0700000e+002 -5.4000000e+001  0.0000000e+000  7.1000000e+001  7.1000000e+001 -1.8000000e+001 -1.7800000e+002 -3.2100000e+002 -3.9300000e+002 -3.3900000e+002 -1.6100000e+002  7.1000000e+001  2.6800000e+002  3.2100000e+002  2.3200000e+002  3.6000000e+001 -1.4300000e+002 -2.6800000e+002 -2.6800000e+002 -1.7800000e+002 -8.9000000e+001 -8.9000000e+001 -2.1400000e+002 -3.7500000e+002 -4.8200000e+002 -4.8200000e+002 -3.3900000e+002 -1.4300000e+002  5.4000000e+001  1.7800000e+002  1.9600000e+002  1.4300000e+002  3.6000000e+001 -3.6000000e+001 -1.8000000e+001  7.1000000e+001  2.1400000e+002  3.0300000e+002  3.2100000e+002  2.6800000e+002  1.6100000e+002  7.1000000e+001  1.0700000e+002  2.5000000e+002  4.8200000e+002  6.7800000e+002  7.8500000e+002  7.6700000e+002  6.6000000e+002  5.5300000e+002  5.0000000e+002  5.3500000e+002  6.6000000e+002  8.2100000e+002  9.4600000e+002  9.4600000e+002  8.5700000e+002  6.9600000e+002  6.0700000e+002  6.4300000e+002  7.6700000e+002  9.6400000e+002  1.1070000e+003  1.1240000e+003  1.0170000e+003  8.7500000e+002  7.5000000e+002  7.5000000e+002  9.1000000e+002  1.1600000e+003  1.4460000e+003  1.6600000e+003  1.7310000e+003  1.6780000e+003  1.5880000e+003  1.5710000e+003  1.6960000e+003  1.9100000e+003  2.1060000e+003  2.2310000e+003  2.2130000e+003  2.1060000e+003  1.9810000e+003  1.9450000e+003  2.0350000e+003  2.2490000e+003  2.5160000e+003  2.7130000e+003  2.7840000e+003  2.6950000e+003  2.5160000e+003  2.3740000e+003  2.3380000e+003  2.4090000e+003  2.5520000e+003  2.6410000e+003  2.6240000e+003  2.4450000e+003  2.1600000e+003  1.8740000e+003  1.6780000e+003  1.6060000e+003  1.6240000e+003  1.6780000e+003  1.6420000e+003  1.4810000e+003  1.1780000e+003  8.3900000e+002  5.5300000e+002  3.7500000e+002  3.0300000e+002  2.8600000e+002  2.3200000e+002  1.0700000e+002 -8.9000000e+001 -2.8600000e+002 -4.2800000e+002 -4.6400000e+002 -3.7500000e+002 -2.1400000e+002 -7.1000000e+001 -3.6000000e+001 -1.9600000e+002 -4.6400000e+002 -7.6700000e+002 -9.6400000e+002 -1.0530000e+003 -1.0170000e+003 -9.4600000e+002 -8.9200000e+002 -9.1000000e+002 -9.9900000e+002 -1.1070000e+003 -1.1420000e+003 -1.0710000e+003 -9.1000000e+002 -7.3200000e+002 -6.0700000e+002 -6.0700000e+002 -7.5000000e+002 -9.8200000e+002 -1.1960000e+003 -1.2850000e+003 -1.1960000e+003 -9.8200000e+002 -8.0300000e+002 -7.1400000e+002 -7.5000000e+002 -8.9200000e+002 -1.0530000e+003 -1.1420000e+003 -1.1420000e+003 -1.0710000e+003 -9.8200000e+002 -9.1000000e+002 -8.9200000e+002 -9.4600000e+002 -9.9900000e+002 -9.9900000e+002 -8.9200000e+002 -6.9600000e+002 -4.6400000e+002 -3.2100000e+002 -3.3900000e+002 -5.0000000e+002 -7.3200000e+002 -9.4600000e+002 -1.0350000e+003 -9.8200000e+002 -8.7500000e+002 -7.8500000e+002 -7.3200000e+002 -7.5000000e+002 -8.2100000e+002 -8.9200000e+002 -8.9200000e+002 -7.8500000e+002 -5.8900000e+002 -3.7500000e+002 -2.3200000e+002 -2.3200000e+002 -3.9300000e+002 -5.8900000e+002 -7.5000000e+002 -7.8500000e+002 -7.1400000e+002 -5.7100000e+002 -4.4600000e+002 -4.1000000e+002 -4.8200000e+002 -6.0700000e+002 -6.9600000e+002 -7.1400000e+002 -5.8900000e+002 -3.7500000e+002 -2.1400000e+002 -1.7800000e+002 -3.5700000e+002 -6.2500000e+002 -8.7500000e+002 -1.0170000e+003 -9.9900000e+002 -8.3900000e+002 -6.6000000e+002 -5.1800000e+002 -4.6400000e+002 -5.1800000e+002 -6.0700000e+002 -6.2500000e+002 -5.3500000e+002 -3.5700000e+002 -1.6100000e+002 -8.9000000e+001 -1.7800000e+002 -4.2800000e+002 -7.8500000e+002 -1.1070000e+003 -1.2670000e+003 -1.2310000e+003 -1.0350000e+003 -8.2100000e+002 -6.6000000e+002 -6.4300000e+002 -7.1400000e+002 -8.0300000e+002 -8.2100000e+002 -6.9600000e+002 -5.1800000e+002 -3.3900000e+002 -2.8600000e+002 -3.5700000e+002 -5.7100000e+002 -8.0300000e+002 -1.0170000e+003 -1.1420000e+003 -1.1240000e+003 -1.0350000e+003 -9.2800000e+002 -8.2100000e+002 -7.8500000e+002 -7.6700000e+002 -7.8500000e+002 -7.6700000e+002 -6.4300000e+002 -4.4600000e+002 -2.5000000e+002 -1.6100000e+002 -2.1400000e+002 -3.5700000e+002 -5.5300000e+002 -6.9600000e+002 -7.3200000e+002 -6.6000000e+002 -5.7100000e+002 -5.3500000e+002 -5.8900000e+002 -7.3200000e+002 -9.1000000e+002 -9.9900000e+002 -1.0170000e+003 -9.2800000e+002 -7.8500000e+002 -6.4300000e+002 -5.8900000e+002 -6.7800000e+002 -8.7500000e+002 -1.0710000e+003 -1.1780000e+003 -1.1420000e+003 -9.4600000e+002 -7.1400000e+002 -5.3500000e+002 -4.6400000e+002 -4.8200000e+002 -5.1800000e+002 -5.1800000e+002 -4.2800000e+002 -2.5000000e+002 -5.4000000e+001  8.9000000e+001  1.2500000e+002  1.8000000e+001 -1.0700000e+002 -1.6100000e+002 -8.9000000e+001  1.2500000e+002  3.9300000e+002  6.0700000e+002  7.1400000e+002  6.9600000e+002  5.8900000e+002  5.1800000e+002  5.0000000e+002  5.7100000e+002  6.7800000e+002  7.8500000e+002  8.2100000e+002  7.5000000e+002  5.8900000e+002  4.2800000e+002  3.3900000e+002  3.7500000e+002  5.0000000e+002  6.7800000e+002  7.8500000e+002  7.6700000e+002  6.2500000e+002  4.1000000e+002  2.1400000e+002  7.1000000e+001  3.6000000e+001  5.4000000e+001  5.4000000e+001 -1.8000000e+001 -1.9600000e+002 -3.9300000e+002 -5.7100000e+002 -6.4300000e+002 -5.8900000e+002 -4.6400000e+002 -3.5700000e+002 -3.3900000e+002 -4.2800000e+002 -6.2500000e+002 -8.2100000e+002 -9.2800000e+002 -9.2800000e+002 -8.2100000e+002 -6.9600000e+002 -6.2500000e+002 -6.0700000e+002 -6.9600000e+002 -8.5700000e+002 -1.0350000e+003 -1.1240000e+003 -1.0890000e+003 -9.6400000e+002 -8.5700000e+002 -8.3900000e+002 -8.9200000e+002 -9.9900000e+002 -1.0710000e+003 -1.0710000e+003 -9.4600000e+002 -7.5000000e+002 -5.7100000e+002 -5.0000000e+002 -5.0000000e+002 -5.7100000e+002 -6.2500000e+002 -5.8900000e+002 -4.8200000e+002 -3.2100000e+002 -1.2500000e+002  1.0700000e+002  4.2800000e+002  8.9200000e+002  1.6420000e+003  2.7130000e+003  4.0870000e+003  5.5860000e+003  6.8710000e+003  7.5670000e+003  7.4250000e+003  6.4610000e+003  4.9260000e+003  3.1050000e+003  1.3030000e+003 -2.6800000e+002 -1.4630000e+003 -2.2840000e+003 -2.7840000e+003 -3.0340000e+003 -3.0700000e+003 -2.8560000e+003 -2.3920000e+003 -1.7490000e+003 -1.0350000e+003 -3.9300000e+002  8.9000000e+001  3.2100000e+002  3.2100000e+002  1.9600000e+002  7.1000000e+001  5.4000000e+001  1.0700000e+002  1.9600000e+002  2.1400000e+002  1.0700000e+002 -8.9000000e+001 -3.2100000e+002 -4.8200000e+002 -5.5300000e+002 -4.8200000e+002 -3.0300000e+002 -1.2500000e+002 -3.6000000e+001 -5.4000000e+001 -1.6100000e+002 -2.5000000e+002 -2.5000000e+002 -1.6100000e+002  1.8000000e+001  1.7800000e+002  2.6800000e+002  2.5000000e+002  1.6100000e+002  7.1000000e+001  7.1000000e+001  1.6100000e+002  3.2100000e+002  5.3500000e+002  6.9600000e+002  7.8500000e+002  7.5000000e+002  6.6000000e+002  5.5300000e+002  5.0000000e+002  5.3500000e+002  6.4300000e+002  7.3200000e+002  7.5000000e+002  6.2500000e+002  4.6400000e+002  3.2100000e+002  3.0300000e+002  4.4600000e+002  6.9600000e+002  9.4600000e+002  1.1240000e+003  1.1600000e+003  1.0350000e+003  8.0300000e+002  5.7100000e+002  4.8200000e+002  5.3500000e+002  6.7800000e+002  8.0300000e+002  8.5700000e+002  8.2100000e+002  7.1400000e+002  6.4300000e+002  6.6000000e+002  7.6700000e+002  9.2800000e+002  1.1070000e+003  1.1960000e+003  1.1960000e+003  1.0890000e+003  9.9900000e+002  1.0350000e+003  1.2140000e+003  1.4990000e+003  1.7670000e+003  1.9450000e+003  1.9810000e+003  1.9450000e+003  1.8560000e+003  1.8200000e+003  1.8740000e+003  1.9990000e+003  2.1770000e+003  2.3020000e+003  2.3200000e+003  2.2670000e+003  2.1950000e+003  2.1600000e+003  2.2310000e+003  2.3740000e+003  2.5520000e+003  2.6770000e+003  2.6950000e+003  2.6060000e+003  2.4270000e+003  2.2490000e+003  2.1600000e+003  2.1770000e+003  2.2310000e+003  2.2310000e+003  2.1600000e+003  1.9810000e+003  1.7670000e+003  1.5530000e+003  1.3920000e+003  1.3210000e+003  1.3560000e+003  1.4100000e+003  1.4460000e+003  1.4100000e+003  1.2850000e+003  1.0890000e+003  9.1000000e+002  7.8500000e+002  7.3200000e+002  7.6700000e+002  8.3900000e+002  8.2100000e+002  7.1400000e+002  5.0000000e+002  2.5000000e+002  1.8000000e+001 -1.2500000e+002 -1.9600000e+002 -2.1400000e+002 -2.5000000e+002 -3.7500000e+002 -5.7100000e+002 -7.8500000e+002 -9.2800000e+002 -9.2800000e+002 -8.0300000e+002 -6.2500000e+002 -4.8200000e+002 -4.6400000e+002 -6.0700000e+002 -8.3900000e+002 -1.0890000e+003 -1.2310000e+003 -1.2670000e+003 -1.2140000e+003 -1.1240000e+003 -1.0530000e+003 -1.0530000e+003 -1.1070000e+003 -1.1780000e+003 -1.2140000e+003 -1.1960000e+003 -1.1600000e+003 -1.1070000e+003 -1.0890000e+003 -1.1070000e+003 -1.1420000e+003 -1.1420000e+003 -1.0530000e+003 -8.7500000e+002 -6.6000000e+002 -4.6400000e+002 -3.3900000e+002 -3.5700000e+002 -5.1800000e+002 -7.5000000e+002 -9.8200000e+002 -1.0710000e+003 -1.0170000e+003 -8.3900000e+002 -6.7800000e+002 -5.8900000e+002 -6.0700000e+002 -7.5000000e+002 -9.1000000e+002 -9.8200000e+002 -8.9200000e+002 -6.9600000e+002 -4.8200000e+002 -3.3900000e+002 -3.2100000e+002 -4.4600000e+002 -6.2500000e+002 -8.0300000e+002 -8.5700000e+002 -8.2100000e+002 -7.1400000e+002 -6.2500000e+002 -5.8900000e+002 -6.4300000e+002 -7.5000000e+002 -8.9200000e+002 -9.6400000e+002 -9.1000000e+002 -7.6700000e+002 -6.2500000e+002 -5.5300000e+002 -5.5300000e+002 -6.0700000e+002 -6.0700000e+002 -5.1800000e+002 -3.2100000e+002 -8.9000000e+001  8.9000000e+001  1.2500000e+002  3.6000000e+001 -1.7800000e+002 -4.2800000e+002 -6.6000000e+002 -7.5000000e+002 -6.6000000e+002 -4.8200000e+002 -3.2100000e+002 -2.6800000e+002 -3.3900000e+002 -4.8200000e+002 -6.0700000e+002 -6.6000000e+002 -6.2500000e+002 -5.0000000e+002 -4.1000000e+002 -4.1000000e+002 -5.3500000e+002 -7.5000000e+002 -9.2800000e+002 -1.0170000e+003 -9.8200000e+002 -8.7500000e+002 -7.1400000e+002 -5.8900000e+002 -5.3500000e+002 -5.7100000e+002 -6.4300000e+002 -6.9600000e+002 -6.9600000e+002 -6.2500000e+002 -5.1800000e+002 -4.4600000e+002 -4.8200000e+002 -6.4300000e+002 -8.5700000e+002 -1.0350000e+003 -1.0710000e+003 -9.6400000e+002 -7.5000000e+002 -5.1800000e+002 -3.3900000e+002 -2.8600000e+002 -3.5700000e+002 -4.4600000e+002 -5.0000000e+002 -4.6400000e+002 -3.7500000e+002 -3.0300000e+002 -3.0300000e+002 -4.1000000e+002 -5.8900000e+002 -8.0300000e+002 -9.2800000e+002 -9.2800000e+002 -8.2100000e+002 -6.6000000e+002 -5.3500000e+002 -5.0000000e+002 -5.8900000e+002 -7.3200000e+002 -8.5700000e+002 -8.9200000e+002 -8.2100000e+002 -6.6000000e+002 -5.1800000e+002 -4.6400000e+002 -5.5300000e+002 -7.5000000e+002 -9.8200000e+002 -1.1420000e+003 -1.1780000e+003 -1.1240000e+003 -9.9900000e+002 -8.7500000e+002 -7.8500000e+002 -7.8500000e+002 -8.0300000e+002 -7.5000000e+002 -6.2500000e+002 -3.9300000e+002 -1.6100000e+002  0.0000000e+000  1.8000000e+001 -1.0700000e+002 -3.2100000e+002 -5.0000000e+002 -5.8900000e+002 -5.7100000e+002 -4.6400000e+002 -3.5700000e+002 -3.2100000e+002 -3.7500000e+002 -5.3500000e+002 -6.9600000e+002 -8.2100000e+002 -8.2100000e+002 -6.7800000e+002 -4.6400000e+002 -2.8600000e+002 -2.6800000e+002 -4.1000000e+002 -6.0700000e+002 -7.1400000e+002 -6.6000000e+002 -4.2800000e+002 -1.4300000e+002  1.2500000e+002  2.6800000e+002  2.8600000e+002  2.3200000e+002  1.7800000e+002  1.7800000e+002  2.6800000e+002  4.4600000e+002  6.2500000e+002  7.3200000e+002  6.9600000e+002  5.8900000e+002  4.8200000e+002  4.4600000e+002  5.3500000e+002  7.3200000e+002  9.8200000e+002  1.1420000e+003  1.1420000e+003  9.6400000e+002  7.1400000e+002  5.0000000e+002  3.9300000e+002  3.9300000e+002  4.8200000e+002  5.3500000e+002  4.6400000e+002  2.6800000e+002 -1.8000000e+001 -2.8600000e+002 -4.2800000e+002 -4.2800000e+002 -3.3900000e+002 -2.8600000e+002 -3.2100000e+002 -4.6400000e+002 -6.6000000e+002 -8.3900000e+002 -9.4600000e+002 -9.4600000e+002 -8.9200000e+002 -8.3900000e+002 -8.0300000e+002 -8.2100000e+002 -8.9200000e+002 -9.8200000e+002 -1.0530000e+003 -1.0530000e+003 -9.8200000e+002 -8.9200000e+002 -8.2100000e+002 -8.5700000e+002 -9.9900000e+002 -1.1780000e+003 -1.2670000e+003 -1.1780000e+003 -9.4600000e+002 -6.7800000e+002 -4.8200000e+002 -4.1000000e+002 -5.1800000e+002 -6.9600000e+002 -8.7500000e+002 -9.6400000e+002 -9.2800000e+002 -7.6700000e+002 -5.3500000e+002 -3.2100000e+002 -2.1400000e+002 -2.1400000e+002 -2.5000000e+002 -2.1400000e+002 -1.8000000e+001  4.2800000e+002  1.1420000e+003  2.1240000e+003  3.3020000e+003  4.5870000e+003  5.8360000e+003  6.7820000e+003  7.2100000e+003  6.9780000e+003  6.1040000e+003  4.7470000e+003  3.0340000e+003  1.1780000e+003 -5.8900000e+002 -1.9990000e+003 -2.9270000e+003 -3.3200000e+003 -3.2480000e+003 -2.8380000e+003 -2.3020000e+003 -1.7490000e+003 -1.2850000e+003 -9.4600000e+002 -6.6000000e+002 -4.1000000e+002 -1.7800000e+002  1.8000000e+001  1.2500000e+002  1.4300000e+002  5.4000000e+001 -7.1000000e+001 -1.6100000e+002 -1.6100000e+002 -7.1000000e+001  5.4000000e+001  1.7800000e+002  2.1400000e+002  1.0700000e+002 -1.2500000e+002 -4.1000000e+002 -6.0700000e+002 -6.0700000e+002 -4.2800000e+002 -1.9600000e+002  3.6000000e+001  1.7800000e+002  2.5000000e+002  2.1400000e+002  1.7800000e+002  1.6100000e+002  2.3200000e+002  3.3900000e+002  4.4600000e+002  4.4600000e+002  3.7500000e+002  2.3200000e+002  1.2500000e+002  1.0700000e+002  2.3200000e+002  4.1000000e+002  5.5300000e+002  6.0700000e+002  5.3500000e+002  3.7500000e+002  1.7800000e+002  3.6000000e+001  0.0000000e+000  8.9000000e+001  2.5000000e+002  4.1000000e+002  5.0000000e+002  4.8200000e+002  3.9300000e+002  3.2100000e+002  3.3900000e+002  4.4600000e+002  6.2500000e+002  7.8500000e+002  8.2100000e+002  7.3200000e+002  5.5300000e+002  3.9300000e+002  3.2100000e+002  4.1000000e+002  6.0700000e+002  8.5700000e+002  1.0170000e+003  1.0530000e+003  9.4600000e+002  8.2100000e+002  7.5000000e+002  8.2100000e+002  9.9900000e+002  1.1960000e+003  1.3740000e+003  1.4280000e+003  1.3920000e+003  1.3030000e+003  1.2310000e+003  1.2490000e+003  1.3740000e+003  1.5530000e+003  1.7310000e+003  1.8560000e+003  1.8920000e+003  1.8560000e+003  1.8030000e+003  1.7670000e+003  1.8200000e+003  1.9280000e+003  2.0880000e+003  2.1770000e+003  2.1770000e+003  2.0520000e+003  1.9100000e+003  1.8030000e+003  1.8380000e+003  1.9810000e+003  2.1770000e+003  2.3200000e+003  2.3560000e+003  2.2840000e+003  2.1420000e+003  1.9990000e+003  1.8920000e+003  1.8920000e+003  1.9450000e+003  1.9810000e+003  1.9100000e+003  1.7310000e+003  1.4810000e+003  1.2490000e+003  1.1070000e+003  1.0710000e+003  1.1070000e+003  1.1420000e+003  1.0890000e+003  9.8200000e+002  8.3900000e+002  6.9600000e+002  5.8900000e+002  5.3500000e+002  4.8200000e+002  3.9300000e+002  2.5000000e+002  7.1000000e+001 -1.4300000e+002 -3.3900000e+002 -4.6400000e+002 -5.0000000e+002 -4.2800000e+002 -3.2100000e+002 -2.5000000e+002 -3.0300000e+002 -5.0000000e+002 -7.6700000e+002 -9.9900000e+002 -1.1240000e+003 -1.1240000e+003 -1.0890000e+003 -1.0350000e+003 -1.0530000e+003 -1.1420000e+003 -1.3030000e+003 -1.4630000e+003 -1.5170000e+003 -1.4100000e+003 -1.1960000e+003 -9.1000000e+002 -6.9600000e+002 -6.2500000e+002 -6.7800000e+002 -8.0300000e+002 -9.1000000e+002 -9.6400000e+002 -8.9200000e+002 -7.6700000e+002 -6.2500000e+002 -5.5300000e+002 -6.0700000e+002 -7.6700000e+002 -9.2800000e+002 -1.0170000e+003 -9.8200000e+002 -8.5700000e+002 -6.9600000e+002 -6.2500000e+002 -6.7800000e+002 -8.0300000e+002 -9.4600000e+002 -9.9900000e+002 -9.4600000e+002 -8.0300000e+002 -6.6000000e+002 -6.2500000e+002 -7.3200000e+002 -9.6400000e+002 -1.2310000e+003 -1.3740000e+003 -1.3210000e+003 -1.1070000e+003 -8.0300000e+002 -5.1800000e+002 -3.2100000e+002 -2.5000000e+002 -3.2100000e+002 -4.4600000e+002 -5.3500000e+002 -5.5300000e+002 -5.0000000e+002 -4.4600000e+002 -4.8200000e+002 -6.0700000e+002 -7.5000000e+002 -8.2100000e+002 -7.8500000e+002 -6.4300000e+002 -4.1000000e+002 -1.6100000e+002  0.0000000e+000  0.0000000e+000 -1.2500000e+002 -3.2100000e+002 -5.1800000e+002 -6.2500000e+002 -6.0700000e+002 -5.3500000e+002 -4.8200000e+002 -5.3500000e+002 -6.7800000e+002 -8.5700000e+002 -9.6400000e+002 -9.2800000e+002 -8.0300000e+002 -6.0700000e+002 -4.2800000e+002 -3.2100000e+002 -3.3900000e+002 -5.0000000e+002 -7.3200000e+002 -8.9200000e+002 -9.1000000e+002 -8.5700000e+002 -7.6700000e+002 -7.1400000e+002 -7.1400000e+002 -7.8500000e+002 -8.5700000e+002 -8.9200000e+002 -8.2100000e+002 -6.7800000e+002 -5.0000000e+002 -3.5700000e+002 -3.0300000e+002 -3.7500000e+002 -5.0000000e+002 -5.8900000e+002 -5.7100000e+002 -4.2800000e+002 -2.5000000e+002 -1.4300000e+002 -1.6100000e+002 -3.3900000e+002 -5.7100000e+002 -7.6700000e+002 -8.3900000e+002 -7.8500000e+002 -6.4300000e+002 -5.1800000e+002 -5.3500000e+002 -6.7800000e+002 -8.7500000e+002 -9.9900000e+002 -9.9900000e+002 -8.9200000e+002 -6.9600000e+002 -4.6400000e+002 -2.8600000e+002 -2.3200000e+002 -3.3900000e+002 -5.5300000e+002 -7.8500000e+002 -9.6400000e+002 -1.0350000e+003 -9.9900000e+002 -9.1000000e+002 -8.3900000e+002 -8.7500000e+002 -9.6400000e+002 -1.0170000e+003 -9.6400000e+002 -7.8500000e+002 -5.7100000e+002 -3.7500000e+002 -2.8600000e+002 -3.0300000e+002 -4.2800000e+002 -5.7100000e+002 -6.6000000e+002 -6.7800000e+002 -5.7100000e+002 -3.9300000e+002 -2.3200000e+002 -1.6100000e+002 -2.3200000e+002 -3.5700000e+002 -4.6400000e+002 -4.6400000e+002 -3.7500000e+002 -2.3200000e+002 -1.4300000e+002 -1.2500000e+002 -2.3200000e+002 -3.9300000e+002 -5.7100000e+002 -6.7800000e+002 -6.7800000e+002 -5.7100000e+002 -4.1000000e+002 -2.8600000e+002 -2.6800000e+002 -3.3900000e+002 -4.1000000e+002 -4.4600000e+002 -3.9300000e+002 -2.5000000e+002 -8.9000000e+001  3.6000000e+001  1.8000000e+001 -8.9000000e+001 -2.5000000e+002 -3.3900000e+002 -2.8600000e+002 -5.4000000e+001  2.8600000e+002  5.8900000e+002  7.8500000e+002  8.3900000e+002  8.0300000e+002  7.5000000e+002  7.6700000e+002  8.5700000e+002  9.9900000e+002  1.1070000e+003  1.1600000e+003  1.1070000e+003  9.4600000e+002  7.3200000e+002  5.7100000e+002  5.1800000e+002  5.5300000e+002  6.0700000e+002  5.8900000e+002  4.8200000e+002  2.5000000e+002  0.0000000e+000 -2.3200000e+002 -3.5700000e+002 -3.9300000e+002 -3.5700000e+002 -3.2100000e+002 -3.7500000e+002 -5.5300000e+002 -8.0300000e+002 -1.0530000e+003 -1.1960000e+003 -1.1780000e+003 -1.0170000e+003 -8.2100000e+002 -6.6000000e+002 -5.8900000e+002 -6.4300000e+002 -7.5000000e+002 -8.7500000e+002 -8.9200000e+002 -8.0300000e+002 -6.7800000e+002 -5.8900000e+002 -6.0700000e+002 -7.1400000e+002 -9.1000000e+002 -1.0530000e+003 -1.1240000e+003 -1.0710000e+003 -8.9200000e+002 -7.3200000e+002 -6.6000000e+002 -7.3200000e+002 -9.2800000e+002 -1.1240000e+003 -1.1960000e+003 -1.1240000e+003 -9.2800000e+002 -6.9600000e+002 -5.1800000e+002 -4.6400000e+002 -4.8200000e+002 -5.1800000e+002 -5.0000000e+002 -3.3900000e+002  0.0000000e+000  4.8200000e+002  1.1240000e+003  1.9280000e+003  2.8730000e+003  3.9620000e+003  5.1040000e+003  6.1400000e+003  6.7820000e+003  6.8000000e+003  6.1040000e+003  4.7830000e+003  3.0880000e+003  1.2310000e+003 -5.0000000e+002 -1.8920000e+003 -2.7840000e+003 -3.1590000e+003 -3.1230000e+003 -2.8200000e+003 -2.3920000e+003 -1.9630000e+003 -1.5350000e+003 -1.1240000e+003 -6.7800000e+002 -2.5000000e+002  1.2500000e+002  3.7500000e+002  4.8200000e+002  4.2800000e+002  2.5000000e+002  1.0700000e+002  3.6000000e+001  7.1000000e+001  1.6100000e+002  2.1400000e+002  1.9600000e+002  5.4000000e+001 -1.4300000e+002 -3.2100000e+002 -3.9300000e+002 -3.0300000e+002 -1.0700000e+002  1.0700000e+002  2.5000000e+002  2.5000000e+002  1.2500000e+002 -5.4000000e+001 -1.9600000e+002 -2.1400000e+002 -1.4300000e+002  1.8000000e+001  1.6100000e+002  2.1400000e+002  1.4300000e+002 -7.1000000e+001 -2.5000000e+002 -3.2100000e+002 -2.3200000e+002 -3.6000000e+001  1.6100000e+002  3.0300000e+002  3.0300000e+002  2.5000000e+002  2.1400000e+002  2.5000000e+002  3.9300000e+002  5.5300000e+002  6.6000000e+002  7.1400000e+002  6.7800000e+002  5.8900000e+002  5.0000000e+002  4.6400000e+002  5.1800000e+002  6.6000000e+002  8.0300000e+002  8.9200000e+002  8.9200000e+002  7.8500000e+002  6.2500000e+002  4.8200000e+002  4.4600000e+002  5.3500000e+002  6.9600000e+002  8.3900000e+002  8.5700000e+002  7.5000000e+002  5.7100000e+002  4.4600000e+002  4.1000000e+002  5.0000000e+002  6.9600000e+002  9.1000000e+002  1.1070000e+003  1.2140000e+003  1.2140000e+003  1.1600000e+003  1.1070000e+003  1.1600000e+003  1.3030000e+003  1.4990000e+003  1.6600000e+003  1.7310000e+003  1.7490000e+003  1.7130000e+003  1.7130000e+003  1.7670000e+003  1.8920000e+003  2.1060000e+003  2.3020000e+003  2.4090000e+003  2.3740000e+003  2.1950000e+003  1.9990000e+003  1.8740000e+003  1.8560000e+003  1.9630000e+003  2.0880000e+003  2.1600000e+003  2.1240000e+003  1.9990000e+003  1.8560000e+003  1.7490000e+003  1.7490000e+003  1.8380000e+003  1.9810000e+003  2.0520000e+003  1.9630000e+003  1.7670000e+003  1.4810000e+003  1.2310000e+003  1.0530000e+003  1.0350000e+003  1.1240000e+003  1.2670000e+003  1.2850000e+003  1.1240000e+003  8.7500000e+002  5.8900000e+002  3.9300000e+002  3.0300000e+002  3.2100000e+002  3.9300000e+002  4.1000000e+002  3.2100000e+002  1.2500000e+002 -1.6100000e+002 -4.1000000e+002 -5.5300000e+002 -6.0700000e+002 -5.8900000e+002 -6.0700000e+002 -6.7800000e+002 -8.3900000e+002 -1.0170000e+003 -1.1240000e+003 -1.1240000e+003 -9.8200000e+002 -7.8500000e+002 -6.0700000e+002 -5.5300000e+002 -6.2500000e+002 -8.3900000e+002 -1.0890000e+003 -1.2670000e+003 -1.3560000e+003 -1.3390000e+003 -1.2850000e+003 -1.2670000e+003 -1.3210000e+003 -1.4630000e+003 -1.5880000e+003 -1.6420000e+003 -1.6240000e+003 -1.5170000e+003 -1.3560000e+003 -1.2140000e+003 -1.1240000e+003 -1.1070000e+003 -1.1420000e+003 -1.1780000e+003 -1.1420000e+003 -1.0350000e+003 -8.5700000e+002 -7.1400000e+002 -6.2500000e+002 -6.2500000e+002 -7.3200000e+002 -8.7500000e+002 -9.6400000e+002 -9.2800000e+002 -7.8500000e+002 -6.0700000e+002 -5.1800000e+002 -5.5300000e+002 -6.9600000e+002 -8.9200000e+002 -1.0350000e+003 -1.0530000e+003 -9.6400000e+002 -7.8500000e+002 -5.8900000e+002 -4.8200000e+002 -5.1800000e+002 -6.2500000e+002 -7.6700000e+002 -8.3900000e+002 -8.3900000e+002 -7.5000000e+002 -6.6000000e+002 -6.7800000e+002 -8.2100000e+002 -1.0170000e+003 -1.1420000e+003 -1.1240000e+003 -9.6400000e+002 -6.9600000e+002 -4.4600000e+002 -3.0300000e+002 -3.2100000e+002 -4.4600000e+002 -5.8900000e+002 -6.9600000e+002 -7.3200000e+002 -7.3200000e+002 -6.9600000e+002 -6.7800000e+002 -6.7800000e+002 -7.3200000e+002 -8.0300000e+002 -8.3900000e+002 -7.6700000e+002 -6.2500000e+002 -4.4600000e+002 -3.3900000e+002 -3.3900000e+002 -5.0000000e+002 -7.6700000e+002 -1.0530000e+003 -1.2140000e+003 -1.2310000e+003 -1.1070000e+003 -9.2800000e+002 -7.8500000e+002 -7.5000000e+002 -8.2100000e+002 -9.6400000e+002 -1.0530000e+003 -9.9900000e+002 -8.0300000e+002 -5.5300000e+002 -3.3900000e+002 -2.8600000e+002 -3.7500000e+002 -5.7100000e+002 -7.5000000e+002 -8.7500000e+002 -8.9200000e+002 -8.0300000e+002 -6.7800000e+002 -6.0700000e+002 -6.4300000e+002 -7.6700000e+002 -8.7500000e+002 -8.9200000e+002 -8.0300000e+002 -6.2500000e+002 -4.6400000e+002 -3.9300000e+002 -4.6400000e+002 -6.4300000e+002 -8.3900000e+002 -9.8200000e+002 -9.9900000e+002 -9.1000000e+002 -7.8500000e+002 -6.9600000e+002 -7.5000000e+002 -9.2800000e+002 -1.1600000e+003 -1.3560000e+003 -1.4280000e+003 -1.3740000e+003 -1.2490000e+003 -1.1420000e+003 -1.1240000e+003 -1.1960000e+003 -1.3030000e+003 -1.3210000e+003 -1.1780000e+003 -9.1000000e+002 -5.5300000e+002 -1.9600000e+002  3.6000000e+001  1.0700000e+002  7.1000000e+001 -5.4000000e+001 -1.2500000e+002 -1.0700000e+002  0.0000000e+000  1.6100000e+002  2.8600000e+002  3.2100000e+002  2.5000000e+002  8.9000000e+001 -5.4000000e+001 -8.9000000e+001  0.0000000e+000  1.9600000e+002  4.2800000e+002  5.3500000e+002  5.1800000e+002  3.5700000e+002  1.2500000e+002 -7.1000000e+001 -1.4300000e+002 -1.8000000e+001  2.3200000e+002  4.6400000e+002  6.2500000e+002  6.2500000e+002  5.5300000e+002  4.8200000e+002  4.4600000e+002  4.4600000e+002  4.4600000e+002  3.9300000e+002  2.8600000e+002  1.0700000e+002 -1.2500000e+002 -3.5700000e+002 -5.5300000e+002 -6.0700000e+002 -5.3500000e+002 -4.1000000e+002 -3.3900000e+002 -3.7500000e+002 -5.1800000e+002 -6.9600000e+002 -8.2100000e+002 -8.2100000e+002 -7.1400000e+002 -6.0700000e+002 -6.2500000e+002 -7.3200000e+002 -8.7500000e+002 -1.0170000e+003 -1.0710000e+003 -1.0530000e+003 -9.4600000e+002 -7.8500000e+002 -6.6000000e+002 -6.6000000e+002 -7.8500000e+002 -1.0170000e+003 -1.2490000e+003 -1.3920000e+003 -1.3920000e+003 -1.2850000e+003 -1.1420000e+003 -1.0530000e+003 -1.0530000e+003 -1.1600000e+003 -1.2670000e+003 -1.3390000e+003 -1.3390000e+003 -1.2670000e+003 -1.1780000e+003 -1.1780000e+003 -1.2670000e+003 -1.4100000e+003 -1.4990000e+003 -1.4100000e+003 -1.1420000e+003 -7.1400000e+002 -2.5000000e+002  1.7800000e+002
